Time (s),ECG (mV)
0.0,-0.245
0.002777777777777778,-0.215
0.005555555555555556,-0.185
0.008333333333333333,-0.175
0.011111111111111112,-0.17
0.013888888888888888,-0.17
0.016666666666666666,-0.185
0.019444444444444445,-0.17
0.022222222222222223,-0.16
0.025,-0.15
0.027777777777777776,-0.17
0.030555555555555555,-0.205
0.03333333333333333,-0.22
0.03611111111111111,-0.23
0.03888888888888889,-0.21
0.041666666666666664,-0.19
0.044444444444444446,-0.175
0.04722222222222222,-0.185
0.05,-0.19
0.05277777777777778,-0.19
0.05555555555555555,-0.2
0.058333333333333334,-0.2
0.06111111111111111,-0.21
0.06388888888888888,-0.205
0.06666666666666667,-0.215
0.06944444444444445,-0.205
0.07222222222222222,-0.225
0.075,-0.235
0.07777777777777778,-0.225
0.08055555555555556,-0.205
0.08333333333333333,-0.21
0.08611111111111111,-0.2
0.08888888888888889,-0.2
0.09166666666666666,-0.195
0.09444444444444444,-0.185
0.09722222222222222,-0.19
0.1,-0.215
0.10277777777777777,-0.22
0.10555555555555556,-0.195
0.10833333333333334,-0.195
0.1111111111111111,-0.22
0.11388888888888889,-0.25
0.11666666666666667,-0.22
0.11944444444444445,-0.165
0.12222222222222222,-0.15
0.125,-0.145
0.12777777777777777,-0.185
0.13055555555555556,-0.195
0.13333333333333333,-0.195
0.1361111111111111,-0.185
0.1388888888888889,-0.17
0.14166666666666666,-0.16
0.14444444444444443,-0.16
0.14722222222222223,-0.18
0.15,-0.205
0.1527777777777778,-0.2
0.15555555555555556,-0.165
0.15833333333333333,-0.135
0.16111111111111112,-0.13
0.1638888888888889,-0.13
0.16666666666666666,-0.13
0.16944444444444445,-0.11
0.17222222222222222,-0.065
0.175,-0.03
0.17777777777777778,-0.04
0.18055555555555555,-0.055
0.18333333333333332,-0.055
0.18611111111111112,-0.035
0.18888888888888888,0.0
0.19166666666666668,0.015
0.19444444444444445,0.015
0.19722222222222222,0.0
0.2,0.01
0.20277777777777778,0.015
0.20555555555555555,0.02
0.20833333333333334,0.035
0.2111111111111111,0.045
0.21388888888888888,0.04
0.21666666666666667,0.03
0.21944444444444444,0.025
0.2222222222222222,0.005
0.225,-0.005
0.22777777777777777,-0.025
0.23055555555555557,-0.05
0.23333333333333334,-0.05
0.2361111111111111,-0.045
0.2388888888888889,-0.025
0.24166666666666667,-0.02
0.24444444444444444,-0.035
0.24722222222222223,-0.065
0.25,-0.065
0.25277777777777777,-0.075
0.25555555555555554,-0.07
0.25833333333333336,-0.085
0.2611111111111111,-0.1
0.2638888888888889,-0.14
0.26666666666666666,-0.145
0.26944444444444443,-0.14
0.2722222222222222,-0.115
0.275,-0.095
0.2777777777777778,-0.09
0.28055555555555556,-0.1
0.2833333333333333,-0.11
0.2861111111111111,-0.125
0.28888888888888886,-0.125
0.2916666666666667,-0.11
0.29444444444444445,-0.085
0.2972222222222222,-0.095
0.3,-0.08
0.30277777777777776,-0.065
0.3055555555555556,-0.03
0.30833333333333335,-0.04
0.3111111111111111,-0.065
0.3138888888888889,-0.11
0.31666666666666665,-0.145
0.3194444444444444,-0.145
0.32222222222222224,-0.075
0.325,0.035
0.3277777777777778,0.22
0.33055555555555555,0.435
0.3333333333333333,0.695
0.33611111111111114,1.005
0.3388888888888889,1.3
0.3416666666666667,1.535
0.34444444444444444,1.72
0.3472222222222222,1.82
0.35,1.72
0.3527777777777778,1.425
0.35555555555555557,1.02
0.35833333333333334,0.6
0.3611111111111111,0.2
0.3638888888888889,-0.095
0.36666666666666664,-0.215
0.36944444444444446,-0.19
0.37222222222222223,-0.125
0.375,-0.105
0.37777777777777777,-0.115
0.38055555555555554,-0.13
0.38333333333333336,-0.1
0.3861111111111111,-0.075
0.3888888888888889,-0.08
0.39166666666666666,-0.11
0.39444444444444443,-0.125
0.3972222222222222,-0.155
0.4,-0.165
0.4027777777777778,-0.17
0.40555555555555556,-0.17
0.4083333333333333,-0.17
0.4111111111111111,-0.17
0.41388888888888886,-0.185
0.4166666666666667,-0.185
0.41944444444444445,-0.2
0.4222222222222222,-0.19
0.425,-0.175
0.42777777777777776,-0.155
0.4305555555555556,-0.14
0.43333333333333335,-0.175
0.4361111111111111,-0.175
0.4388888888888889,-0.17
0.44166666666666665,-0.15
0.4444444444444444,-0.16
0.44722222222222224,-0.165
0.45,-0.18
0.4527777777777778,-0.19
0.45555555555555555,-0.165
0.4583333333333333,-0.14
0.46111111111111114,-0.13
0.4638888888888889,-0.15
0.4666666666666667,-0.16
0.46944444444444444,-0.145
0.4722222222222222,-0.125
0.475,-0.115
0.4777777777777778,-0.11
0.48055555555555557,-0.115
0.48333333333333334,-0.12
0.4861111111111111,-0.115
0.4888888888888889,-0.095
0.49166666666666664,-0.085
0.49444444444444446,-0.09
0.49722222222222223,-0.09
0.5,-0.1
0.5027777777777778,-0.095
0.5055555555555555,-0.085
0.5083333333333333,-0.065
0.5111111111111111,-0.06
0.5138888888888888,-0.07
0.5166666666666667,-0.05
0.5194444444444445,-0.045
0.5222222222222223,-0.02
0.525,0.01
0.5277777777777778,0.02
0.5305555555555556,0.04
0.5333333333333333,0.055
0.5361111111111111,0.065
0.5388888888888889,0.075
0.5416666666666666,0.095
0.5444444444444444,0.115
0.5472222222222223,0.085
0.55,0.06
0.5527777777777778,0.08
0.5555555555555556,0.125
0.5583333333333333,0.16
0.5611111111111111,0.165
0.5638888888888889,0.17
0.5666666666666667,0.185
0.5694444444444444,0.22
0.5722222222222222,0.225
0.575,0.235
0.5777777777777777,0.22
0.5805555555555556,0.23
0.5833333333333334,0.25
0.5861111111111111,0.28
0.5888888888888889,0.27
0.5916666666666667,0.25
0.5944444444444444,0.255
0.5972222222222222,0.245
0.6,0.235
0.6027777777777777,0.235
0.6055555555555555,0.25
0.6083333333333333,0.23
0.6111111111111112,0.245
0.6138888888888889,0.23
0.6166666666666667,0.22
0.6194444444444445,0.215
0.6222222222222222,0.18
0.625,0.12
0.6277777777777778,0.075
0.6305555555555555,0.065
0.6333333333333333,0.06
0.6361111111111111,0.055
0.6388888888888888,0.025
0.6416666666666667,-0.005
0.6444444444444445,-0.04
0.6472222222222223,-0.085
0.65,-0.135
0.6527777777777778,-0.145
0.6555555555555556,-0.14
0.6583333333333333,-0.12
0.6611111111111111,-0.12
0.6638888888888889,-0.16
0.6666666666666666,-0.195
0.6694444444444444,-0.2
0.6722222222222223,-0.215
0.675,-0.2
0.6777777777777778,-0.2
0.6805555555555556,-0.215
0.6833333333333333,-0.255
0.6861111111111111,-0.27
0.6888888888888889,-0.225
0.6916666666666667,-0.225
0.6944444444444444,-0.24
0.6972222222222222,-0.25
0.7,-0.23
0.7027777777777777,-0.19
0.7055555555555556,-0.18
0.7083333333333334,-0.2
0.7111111111111111,-0.21
0.7138888888888889,-0.215
0.7166666666666667,-0.21
0.7194444444444444,-0.21
0.7222222222222222,-0.205
0.725,-0.225
0.7277777777777777,-0.23
0.7305555555555555,-0.24
0.7333333333333333,-0.245
0.7361111111111112,-0.23
0.7388888888888889,-0.23
0.7416666666666667,-0.21
0.7444444444444445,-0.2
0.7472222222222222,-0.185
0.75,-0.175
0.7527777777777778,-0.175
0.7555555555555555,-0.19
0.7583333333333333,-0.19
0.7611111111111111,-0.19
0.7638888888888888,-0.2
0.7666666666666667,-0.175
0.7694444444444445,-0.13
0.7722222222222223,-0.09
0.775,-0.095
0.7777777777777778,-0.13
0.7805555555555556,-0.17
0.7833333333333333,-0.16
0.7861111111111111,-0.135
0.7888888888888889,-0.1
0.7916666666666666,-0.09
0.7944444444444444,-0.115
0.7972222222222223,-0.115
0.8,-0.08
0.8027777777777778,-0.04
0.8055555555555556,-0.065
0.8083333333333333,-0.105
0.8111111111111111,-0.12
0.8138888888888889,-0.12
0.8166666666666667,-0.11
0.8194444444444444,-0.105
0.8222222222222222,-0.11
0.825,-0.15
0.8277777777777777,-0.155
0.8305555555555556,-0.16
0.8333333333333334,-0.15
0.8361111111111111,-0.165
0.8388888888888889,-0.19
0.8416666666666667,-0.215
0.8444444444444444,-0.27
0.8472222222222222,-0.32
0.85,-0.34
0.8527777777777777,-0.32
0.8555555555555555,-0.28
0.8583333333333333,-0.285
0.8611111111111112,-0.31
0.8638888888888889,-0.36
0.8666666666666667,-0.375
0.8694444444444445,-0.34
0.8722222222222222,-0.31
0.875,-0.31
0.8777777777777778,-0.305
0.8805555555555555,-0.32
0.8833333333333333,-0.32
0.8861111111111111,-0.35
0.8888888888888888,-0.35
0.8916666666666667,-0.325
0.8944444444444445,-0.3
0.8972222222222223,-0.32
0.9,-0.38
0.9027777777777778,-0.395
0.9055555555555556,-0.335
0.9083333333333333,-0.275
0.9111111111111111,-0.26
0.9138888888888889,-0.29
0.9166666666666666,-0.33
0.9194444444444444,-0.335
0.9222222222222223,-0.33
0.925,-0.325
0.9277777777777778,-0.27
0.9305555555555556,-0.145
0.9333333333333333,0.045
0.9361111111111111,0.28
0.9388888888888889,0.535
0.9416666666666667,0.83
0.9444444444444444,1.105
0.9472222222222222,1.335
0.95,1.5
0.9527777777777777,1.51
0.9555555555555556,1.27
0.9583333333333334,0.865
0.9611111111111111,0.41
0.9638888888888889,0.0
0.9666666666666667,-0.255
0.9694444444444444,-0.33
0.9722222222222222,-0.33
0.975,-0.315
0.9777777777777777,-0.325
0.9805555555555555,-0.32
0.9833333333333333,-0.27
0.9861111111111112,-0.26
0.9888888888888889,-0.29
0.9916666666666667,-0.335
0.9944444444444445,-0.33
0.9972222222222222,-0.345
1.0,-0.35
1.0027777777777778,-0.335
1.0055555555555555,-0.305
1.0083333333333333,-0.3
1.011111111111111,-0.34
1.0138888888888888,-0.36
1.0166666666666666,-0.37
1.0194444444444444,-0.38
1.0222222222222221,-0.38
1.025,-0.37
1.0277777777777777,-0.35
1.0305555555555554,-0.325
1.0333333333333334,-0.305
1.0361111111111112,-0.295
1.038888888888889,-0.275
1.0416666666666667,-0.305
1.0444444444444445,-0.325
1.0472222222222223,-0.345
1.05,-0.335
1.0527777777777778,-0.335
1.0555555555555556,-0.335
1.0583333333333333,-0.36
1.0611111111111111,-0.365
1.0638888888888889,-0.35
1.0666666666666667,-0.38
1.0694444444444444,-0.41
1.0722222222222222,-0.395
1.075,-0.385
1.0777777777777777,-0.36
1.0805555555555555,-0.34
1.0833333333333333,-0.345
1.086111111111111,-0.325
1.0888888888888888,-0.3
1.0916666666666666,-0.295
1.0944444444444446,-0.285
1.0972222222222223,-0.29
1.1,-0.295
1.1027777777777779,-0.285
1.1055555555555556,-0.275
1.1083333333333334,-0.275
1.1111111111111112,-0.235
1.113888888888889,-0.225
1.1166666666666667,-0.215
1.1194444444444445,-0.19
1.1222222222222222,-0.125
1.125,-0.055
1.1277777777777778,-0.04
1.1305555555555555,-0.065
1.1333333333333333,-0.095
1.136111111111111,-0.125
1.1388888888888888,-0.095
1.1416666666666666,-0.095
1.1444444444444444,-0.07
1.1472222222222221,-0.045
1.15,-0.01
1.1527777777777777,-0.02
1.1555555555555554,-0.015
1.1583333333333334,-0.01
1.1611111111111112,-0.03
1.163888888888889,-0.025
1.1666666666666667,0.005
1.1694444444444445,0.065
1.1722222222222223,0.1
1.175,0.11
1.1777777777777778,0.06
1.1805555555555556,-0.05
1.1833333333333333,-0.13
1.1861111111111111,-0.08
1.1888888888888889,0.04
1.1916666666666667,0.125
1.1944444444444444,0.115
1.1972222222222222,0.045
1.2,-0.02
1.2027777777777777,-0.025
1.2055555555555555,0.02
1.2083333333333333,0.015
1.211111111111111,-0.07
1.2138888888888888,-0.135
1.2166666666666666,-0.165
1.2194444444444446,-0.165
1.2222222222222223,-0.1
1.225,-0.04
1.2277777777777779,-0.085
1.2305555555555556,-0.22
1.2333333333333334,-0.44
1.2361111111111112,-0.615
1.238888888888889,-0.66
1.2416666666666667,-0.615
1.2444444444444445,-0.55
1.2472222222222222,-0.505
1.25,-0.48
1.2527777777777778,-0.45
1.2555555555555555,-0.395
1.2583333333333333,-0.355
1.261111111111111,-0.32
1.2638888888888888,-0.305
1.2666666666666666,-0.32
1.2694444444444444,-0.37
1.2722222222222221,-0.51
1.275,-0.67
1.2777777777777777,-0.725
1.2805555555555554,-0.58
1.2833333333333334,-0.395
1.2861111111111112,-0.325
1.288888888888889,-0.37
1.2916666666666667,-0.42
1.2944444444444445,-0.47
1.2972222222222223,-0.47
1.3,-0.435
1.3027777777777778,-0.335
1.3055555555555556,-0.18
1.3083333333333333,-0.035
1.3111111111111111,0.01
1.3138888888888889,-0.135
1.3166666666666667,-0.34
1.3194444444444444,-0.495
1.3222222222222222,-0.575
1.325,-0.56
1.3277777777777777,-0.52
1.3305555555555555,-0.505
1.3333333333333333,-0.445
1.336111111111111,-0.36
1.3388888888888888,-0.33
1.3416666666666666,-0.38
1.3444444444444446,-0.415
1.3472222222222223,-0.41
1.35,-0.415
1.3527777777777779,-0.46
1.3555555555555556,-0.465
1.3583333333333334,-0.41
1.3611111111111112,-0.36
1.363888888888889,-0.33
1.3666666666666667,-0.31
1.3694444444444445,-0.3
1.3722222222222222,-0.255
1.375,-0.215
1.3777777777777778,-0.235
1.3805555555555555,-0.34
1.3833333333333333,-0.4
1.386111111111111,-0.385
1.3888888888888888,-0.325
1.3916666666666666,-0.275
1.3944444444444444,-0.295
1.3972222222222221,-0.365
1.4,-0.365
1.4027777777777777,-0.325
1.4055555555555554,-0.31
1.4083333333333334,-0.335
1.4111111111111112,-0.36
1.413888888888889,-0.37
1.4166666666666667,-0.345
1.4194444444444445,-0.33
1.4222222222222223,-0.375
1.425,-0.425
1.4277777777777778,-0.425
1.4305555555555556,-0.425
1.4333333333333333,-0.485
1.4361111111111111,-0.61
1.4388888888888889,-0.725
1.4416666666666667,-0.78
1.4444444444444444,-0.735
1.4472222222222222,-0.665
1.45,-0.665
1.4527777777777777,-0.72
1.4555555555555555,-0.76
1.4583333333333333,-0.735
1.461111111111111,-0.625
1.4638888888888888,-0.545
1.4666666666666666,-0.51
1.4694444444444446,-0.535
1.4722222222222223,-0.63
1.475,-0.73
1.4777777777777779,-0.77
1.4805555555555556,-0.725
1.4833333333333334,-0.64
1.4861111111111112,-0.58
1.488888888888889,-0.53
1.4916666666666667,-0.525
1.4944444444444445,-0.59
1.4972222222222222,-0.68
1.5,-0.695
1.5027777777777778,-0.595
1.5055555555555555,-0.455
1.5083333333333333,-0.315
1.511111111111111,-0.185
1.5138888888888888,-0.035
1.5166666666666666,0.16
1.5194444444444444,0.425
1.5222222222222221,0.77
1.525,1.115
1.5277777777777777,1.385
1.5305555555555554,1.59
1.5333333333333334,1.66
1.5361111111111112,1.51
1.538888888888889,1.185
1.5416666666666667,0.78
1.5444444444444445,0.33
1.5472222222222223,-0.085
1.55,-0.35
1.5527777777777778,-0.465
1.5555555555555556,-0.535
1.5583333333333333,-0.605
1.5611111111111111,-0.65
1.5638888888888889,-0.67
1.5666666666666667,-0.685
1.5694444444444444,-0.715
1.5722222222222222,-0.75
1.575,-0.77
1.5777777777777777,-0.755
1.5805555555555555,-0.755
1.5833333333333333,-0.75
1.586111111111111,-0.77
1.5888888888888888,-0.775
1.5916666666666666,-0.765
1.5944444444444446,-0.74
1.5972222222222223,-0.745
1.6,-0.77
1.6027777777777779,-0.795
1.6055555555555556,-0.815
1.6083333333333334,-0.805
1.6111111111111112,-0.8
1.613888888888889,-0.81
1.6166666666666667,-0.815
1.6194444444444445,-0.825
1.6222222222222222,-0.8
1.625,-0.785
1.6277777777777778,-0.755
1.6305555555555555,-0.765
1.6333333333333333,-0.755
1.636111111111111,-0.745
1.6388888888888888,-0.735
1.6416666666666666,-0.735
1.6444444444444444,-0.785
1.6472222222222221,-0.845
1.65,-0.85
1.6527777777777777,-0.835
1.6555555555555554,-0.795
1.6583333333333334,-0.76
1.6611111111111112,-0.745
1.663888888888889,-0.735
1.6666666666666667,-0.725
1.6694444444444445,-0.7
1.6722222222222223,-0.685
1.675,-0.67
1.6777777777777778,-0.71
1.6805555555555556,-0.765
1.6833333333333333,-0.79
1.6861111111111111,-0.77
1.6888888888888889,-0.74
1.6916666666666667,-0.7
1.6944444444444444,-0.685
1.6972222222222222,-0.68
1.7,-0.67
1.7027777777777777,-0.65
1.7055555555555555,-0.64
1.7083333333333333,-0.625
1.711111111111111,-0.605
1.7138888888888888,-0.615
1.7166666666666666,-0.605
1.7194444444444446,-0.59
1.7222222222222223,-0.57
1.725,-0.555
1.7277777777777779,-0.565
1.7305555555555556,-0.58
1.7333333333333334,-0.57
1.7361111111111112,-0.545
1.738888888888889,-0.505
1.7416666666666667,-0.465
1.7444444444444445,-0.445
1.7472222222222222,-0.455
1.75,-0.445
1.7527777777777778,-0.43
1.7555555555555555,-0.415
1.7583333333333333,-0.435
1.761111111111111,-0.44
1.7638888888888888,-0.43
1.7666666666666666,-0.39
1.7694444444444444,-0.355
1.7722222222222221,-0.315
1.775,-0.31
1.7777777777777777,-0.33
1.7805555555555554,-0.355
1.7833333333333334,-0.39
1.7861111111111112,-0.415
1.788888888888889,-0.44
1.7916666666666667,-0.465
1.7944444444444445,-0.495
1.7972222222222223,-0.475
1.8,-0.475
1.8027777777777778,-0.49
1.8055555555555556,-0.49
1.8083333333333333,-0.495
1.8111111111111111,-0.5
1.8138888888888889,-0.545
1.8166666666666667,-0.6
1.8194444444444444,-0.625
1.8222222222222222,-0.625
1.825,-0.63
1.8277777777777777,-0.635
1.8305555555555555,-0.62
1.8333333333333333,-0.605
1.836111111111111,-0.59
1.8388888888888888,-0.59
1.8416666666666666,-0.595
1.8444444444444446,-0.615
1.8472222222222223,-0.635
1.85,-0.645
1.8527777777777779,-0.65
1.8555555555555556,-0.65
1.8583333333333334,-0.645
1.8611111111111112,-0.65
1.863888888888889,-0.65
1.8666666666666667,-0.645
1.8694444444444445,-0.635
1.8722222222222222,-0.62
1.875,-0.61
1.8777777777777778,-0.62
1.8805555555555555,-0.645
1.8833333333333333,-0.65
1.886111111111111,-0.665
1.8888888888888888,-0.66
1.8916666666666666,-0.625
1.8944444444444444,-0.62
1.8972222222222221,-0.63
1.9,-0.64
1.9027777777777777,-0.63
1.9055555555555554,-0.61
1.9083333333333334,-0.57
1.9111111111111112,-0.545
1.913888888888889,-0.57
1.9166666666666667,-0.56
1.9194444444444445,-0.555
1.9222222222222223,-0.525
1.925,-0.5
1.9277777777777778,-0.485
1.9305555555555556,-0.495
1.9333333333333333,-0.51
1.9361111111111111,-0.505
1.9388888888888889,-0.475
1.9416666666666667,-0.475
1.9444444444444444,-0.49
1.9472222222222222,-0.515
1.95,-0.51
1.9527777777777777,-0.5
1.9555555555555555,-0.49
1.9583333333333333,-0.505
1.961111111111111,-0.53
1.9638888888888888,-0.56
1.9666666666666666,-0.565
1.9694444444444446,-0.6
1.9722222222222223,-0.615
1.975,-0.635
1.9777777777777779,-0.645
1.9805555555555556,-0.645
1.9833333333333334,-0.665
1.9861111111111112,-0.665
1.988888888888889,-0.65
1.9916666666666667,-0.64
1.9944444444444445,-0.65
1.9972222222222222,-0.68
2.0,-0.695
2.0027777777777778,-0.685
2.0055555555555555,-0.65
2.0083333333333333,-0.63
2.011111111111111,-0.645
2.013888888888889,-0.655
2.0166666666666666,-0.675
2.0194444444444444,-0.665
2.022222222222222,-0.66
2.025,-0.655
2.0277777777777777,-0.65
2.0305555555555554,-0.645
2.033333333333333,-0.65
2.036111111111111,-0.65
2.0388888888888888,-0.645
2.0416666666666665,-0.635
2.0444444444444443,-0.625
2.047222222222222,-0.66
2.05,-0.69
2.0527777777777776,-0.655
2.0555555555555554,-0.565
2.058333333333333,-0.445
2.061111111111111,-0.29
2.063888888888889,-0.085
2.066666666666667,0.165
2.0694444444444446,0.485
2.0722222222222224,0.76
2.075,1.005
2.077777777777778,1.135
2.0805555555555557,1.06
2.0833333333333335,0.75
2.0861111111111112,0.355
2.088888888888889,-0.055
2.091666666666667,-0.42
2.0944444444444446,-0.61
2.0972222222222223,-0.675
2.1,-0.68
2.102777777777778,-0.67
2.1055555555555556,-0.66
2.1083333333333334,-0.665
2.111111111111111,-0.645
2.113888888888889,-0.645
2.1166666666666667,-0.655
2.1194444444444445,-0.66
2.1222222222222222,-0.65
2.125,-0.635
2.1277777777777778,-0.66
2.1305555555555555,-0.69
2.1333333333333333,-0.71
2.136111111111111,-0.7
2.138888888888889,-0.665
2.1416666666666666,-0.635
2.1444444444444444,-0.645
2.147222222222222,-0.675
2.15,-0.69
2.1527777777777777,-0.68
2.1555555555555554,-0.655
2.158333333333333,-0.64
2.161111111111111,-0.63
2.1638888888888888,-0.635
2.1666666666666665,-0.645
2.1694444444444443,-0.635
2.172222222222222,-0.635
2.175,-0.63
2.1777777777777776,-0.635
2.1805555555555554,-0.635
2.183333333333333,-0.635
2.186111111111111,-0.625
2.188888888888889,-0.6
2.191666666666667,-0.59
2.1944444444444446,-0.58
2.1972222222222224,-0.59
2.2,-0.605
2.202777777777778,-0.575
2.2055555555555557,-0.565
2.2083333333333335,-0.555
2.2111111111111112,-0.555
2.213888888888889,-0.55
2.216666666666667,-0.55
2.2194444444444446,-0.535
2.2222222222222223,-0.535
2.225,-0.525
2.227777777777778,-0.515
2.2305555555555556,-0.505
2.2333333333333334,-0.505
2.236111111111111,-0.495
2.238888888888889,-0.485
2.2416666666666667,-0.445
2.2444444444444445,-0.415
2.2472222222222222,-0.41
2.25,-0.415
2.2527777777777778,-0.435
2.2555555555555555,-0.4
2.2583333333333333,-0.375
2.261111111111111,-0.365
2.263888888888889,-0.355
2.2666666666666666,-0.355
2.2694444444444444,-0.345
2.272222222222222,-0.3
2.275,-0.27
2.2777777777777777,-0.225
2.2805555555555554,-0.235
2.283333333333333,-0.26
2.286111111111111,-0.255
2.2888888888888888,-0.235
2.2916666666666665,-0.22
2.2944444444444443,-0.195
2.297222222222222,-0.19
2.3,-0.2
2.3027777777777776,-0.195
2.3055555555555554,-0.175
2.308333333333333,-0.165
2.311111111111111,-0.17
2.313888888888889,-0.18
2.316666666666667,-0.17
2.3194444444444446,-0.155
2.3222222222222224,-0.155
2.325,-0.16
2.327777777777778,-0.175
2.3305555555555557,-0.21
2.3333333333333335,-0.255
2.3361111111111112,-0.295
2.338888888888889,-0.32
2.341666666666667,-0.325
2.3444444444444446,-0.345
2.3472222222222223,-0.38
2.35,-0.415
2.352777777777778,-0.435
2.3555555555555556,-0.425
2.3583333333333334,-0.44
2.361111111111111,-0.47
2.363888888888889,-0.5
2.3666666666666667,-0.525
2.3694444444444445,-0.535
2.3722222222222222,-0.53
2.375,-0.515
2.3777777777777778,-0.515
2.3805555555555555,-0.545
2.3833333333333333,-0.565
2.386111111111111,-0.57
2.388888888888889,-0.565
2.3916666666666666,-0.555
2.3944444444444444,-0.55
2.397222222222222,-0.565
2.4,-0.575
2.4027777777777777,-0.575
2.4055555555555554,-0.555
2.408333333333333,-0.555
2.411111111111111,-0.535
2.4138888888888888,-0.545
2.4166666666666665,-0.565
2.4194444444444443,-0.57
2.422222222222222,-0.555
2.425,-0.54
2.4277777777777776,-0.55
2.4305555555555554,-0.575
2.433333333333333,-0.555
2.436111111111111,-0.55
2.438888888888889,-0.52
2.441666666666667,-0.49
2.4444444444444446,-0.5
2.4472222222222224,-0.515
2.45,-0.515
2.452777777777778,-0.485
2.4555555555555557,-0.435
2.4583333333333335,-0.41
2.4611111111111112,-0.415
2.463888888888889,-0.43
2.466666666666667,-0.43
2.4694444444444446,-0.385
2.4722222222222223,-0.36
2.475,-0.335
2.477777777777778,-0.325
2.4805555555555556,-0.345
2.4833333333333334,-0.37
2.486111111111111,-0.375
2.488888888888889,-0.355
2.4916666666666667,-0.345
2.4944444444444445,-0.35
2.4972222222222222,-0.365
2.5,-0.39
2.5027777777777778,-0.395
2.5055555555555555,-0.4
2.5083333333333333,-0.41
2.511111111111111,-0.43
2.513888888888889,-0.455
2.5166666666666666,-0.5
2.5194444444444444,-0.5
2.522222222222222,-0.485
2.525,-0.455
2.5277777777777777,-0.47
2.5305555555555554,-0.49
2.533333333333333,-0.505
2.536111111111111,-0.51
2.5388888888888888,-0.525
2.5416666666666665,-0.51
2.5444444444444443,-0.525
2.547222222222222,-0.53
2.55,-0.54
2.5527777777777776,-0.545
2.5555555555555554,-0.525
2.558333333333333,-0.51
2.561111111111111,-0.55
2.563888888888889,-0.635
2.566666666666667,-0.71
2.5694444444444446,-0.75
2.5722222222222224,-0.755
2.575,-0.76
2.577777777777778,-0.785
2.5805555555555557,-0.75
2.5833333333333335,-0.69
2.5861111111111112,-0.64
2.588888888888889,-0.59
2.591666666666667,-0.535
2.5944444444444446,-0.485
2.5972222222222223,-0.405
2.6,-0.295
2.602777777777778,-0.165
2.6055555555555556,-0.02
2.6083333333333334,0.19
2.611111111111111,0.46
2.613888888888889,0.725
2.6166666666666667,0.995
2.6194444444444445,1.18
2.6222222222222222,1.255
2.625,1.145
2.6277777777777778,0.895
2.6305555555555555,0.55
2.6333333333333333,0.215
2.636111111111111,-0.055
2.638888888888889,-0.26
2.6416666666666666,-0.395
2.6444444444444444,-0.475
2.647222222222222,-0.54
2.65,-0.575
2.6527777777777777,-0.565
2.6555555555555554,-0.53
2.658333333333333,-0.51
2.661111111111111,-0.535
2.6638888888888888,-0.59
2.6666666666666665,-0.635
2.6694444444444443,-0.675
2.672222222222222,-0.725
2.675,-0.755
2.6777777777777776,-0.77
2.6805555555555554,-0.8
2.683333333333333,-0.78
2.686111111111111,-0.775
2.688888888888889,-0.79
2.691666666666667,-0.805
2.6944444444444446,-0.84
2.6972222222222224,-0.88
2.7,-0.925
2.702777777777778,-0.935
2.7055555555555557,-0.94
2.7083333333333335,-0.92
2.7111111111111112,-0.895
2.713888888888889,-0.905
2.716666666666667,-0.915
2.7194444444444446,-0.895
2.7222222222222223,-0.83
2.725,-0.745
2.727777777777778,-0.695
2.7305555555555556,-0.685
2.7333333333333334,-0.69
2.736111111111111,-0.675
2.738888888888889,-0.64
2.7416666666666667,-0.62
2.7444444444444445,-0.62
2.7472222222222222,-0.635
2.75,-0.65
2.7527777777777778,-0.68
2.7555555555555555,-0.685
2.7583333333333333,-0.625
2.761111111111111,-0.53
2.763888888888889,-0.485
2.7666666666666666,-0.445
2.7694444444444444,-0.385
2.772222222222222,-0.32
2.775,-0.35
2.7777777777777777,-0.4
2.7805555555555554,-0.37
2.783333333333333,-0.355
2.786111111111111,-0.43
2.7888888888888888,-0.54
2.7916666666666665,-0.61
2.7944444444444443,-0.515
2.797222222222222,-0.315
2.8,-0.23
2.8027777777777776,-0.25
2.8055555555555554,-0.245
2.808333333333333,-0.11
2.811111111111111,0.01
2.813888888888889,-0.03
2.816666666666667,-0.135
2.8194444444444446,-0.135
2.8222222222222224,-0.085
2.825,-0.03
2.827777777777778,-0.02
2.8305555555555557,-0.04
2.8333333333333335,-0.045
2.8361111111111112,-0.02
2.838888888888889,0.015
2.841666666666667,0.085
2.8444444444444446,0.105
2.8472222222222223,0.11
2.85,0.14
2.852777777777778,0.2
2.8555555555555556,0.23
2.8583333333333334,0.24
2.861111111111111,0.205
2.863888888888889,0.155
2.8666666666666667,0.115
2.8694444444444445,0.075
2.8722222222222222,0.045
2.875,0.005
2.8777777777777778,-0.045
2.8805555555555555,-0.115
2.8833333333333333,-0.155
2.886111111111111,-0.195
2.888888888888889,-0.23
2.8916666666666666,-0.23
2.8944444444444444,-0.255
2.897222222222222,-0.285
2.9,-0.315
2.9027777777777777,-0.355
2.9055555555555554,-0.355
2.908333333333333,-0.355
2.911111111111111,-0.38
2.9138888888888888,-0.405
2.9166666666666665,-0.415
2.9194444444444443,-0.415
2.922222222222222,-0.425
2.925,-0.42
2.9277777777777776,-0.445
2.9305555555555554,-0.45
2.933333333333333,-0.46
2.936111111111111,-0.445
2.938888888888889,-0.445
2.941666666666667,-0.405
2.9444444444444446,-0.43
2.9472222222222224,-0.455
2.95,-0.455
2.952777777777778,-0.445
2.9555555555555557,-0.445
2.9583333333333335,-0.42
2.9611111111111112,-0.395
2.963888888888889,-0.41
2.966666666666667,-0.41
2.9694444444444446,-0.385
2.9722222222222223,-0.355
2.975,-0.33
2.977777777777778,-0.325
2.9805555555555556,-0.35
2.9833333333333334,-0.35
2.986111111111111,-0.305
2.988888888888889,-0.265
2.9916666666666667,-0.225
2.9944444444444445,-0.235
2.9972222222222222,-0.27
3.0,-0.31
3.0027777777777778,-0.345
3.0055555555555555,-0.35
3.0083333333333333,-0.35
3.011111111111111,-0.395
3.013888888888889,-0.42
3.0166666666666666,-0.465
3.0194444444444444,-0.51
3.022222222222222,-0.565
3.025,-0.62
3.0277777777777777,-0.655
3.0305555555555554,-0.695
3.033333333333333,-0.77
3.036111111111111,-0.81
3.0388888888888888,-0.84
3.0416666666666665,-0.835
3.0444444444444443,-0.82
3.047222222222222,-0.79
3.05,-0.76
3.0527777777777776,-0.745
3.0555555555555554,-0.755
3.058333333333333,-0.755
3.061111111111111,-0.765
3.063888888888889,-0.78
3.066666666666667,-0.795
3.0694444444444446,-0.795
3.0722222222222224,-0.79
3.075,-0.775
3.077777777777778,-0.75
3.0805555555555557,-0.72
3.0833333333333335,-0.715
3.0861111111111112,-0.685
3.088888888888889,-0.66
3.091666666666667,-0.605
3.0944444444444446,-0.58
3.0972222222222223,-0.57
3.1,-0.525
3.102777777777778,-0.505
3.1055555555555556,-0.465
3.1083333333333334,-0.43
3.111111111111111,-0.42
3.113888888888889,-0.355
3.1166666666666667,-0.26
3.1194444444444445,-0.1
3.1222222222222222,0.14
3.125,0.38
3.1277777777777778,0.64
3.1305555555555555,0.885
3.1333333333333333,1.125
3.136111111111111,1.36
3.138888888888889,1.495
3.1416666666666666,1.405
3.1444444444444444,1.085
3.147222222222222,0.66
3.15,0.275
3.1527777777777777,0.025
3.1555555555555554,-0.09
3.158333333333333,-0.1
3.161111111111111,-0.105
3.1638888888888888,-0.12
3.1666666666666665,-0.19
3.1694444444444443,-0.225
3.172222222222222,-0.22
3.175,-0.2
3.1777777777777776,-0.25
3.1805555555555554,-0.33
3.183333333333333,-0.37
3.186111111111111,-0.355
3.188888888888889,-0.335
3.191666666666667,-0.315
3.1944444444444446,-0.335
3.1972222222222224,-0.38
3.2,-0.41
3.202777777777778,-0.4
3.2055555555555557,-0.39
3.2083333333333335,-0.375
3.2111111111111112,-0.385
3.213888888888889,-0.43
3.216666666666667,-0.47
3.2194444444444446,-0.475
3.2222222222222223,-0.465
3.225,-0.46
3.227777777777778,-0.485
3.2305555555555556,-0.53
3.2333333333333334,-0.57
3.236111111111111,-0.61
3.238888888888889,-0.62
3.2416666666666667,-0.59
3.2444444444444445,-0.595
3.2472222222222222,-0.595
3.25,-0.63
3.2527777777777778,-0.635
3.2555555555555555,-0.63
3.2583333333333333,-0.615
3.261111111111111,-0.615
3.263888888888889,-0.63
3.2666666666666666,-0.64
3.2694444444444444,-0.61
3.272222222222222,-0.6
3.275,-0.575
3.2777777777777777,-0.575
3.2805555555555554,-0.59
3.283333333333333,-0.595
3.286111111111111,-0.585
3.2888888888888888,-0.555
3.2916666666666665,-0.53
3.2944444444444443,-0.52
3.297222222222222,-0.525
3.3,-0.535
3.3027777777777776,-0.535
3.3055555555555554,-0.51
3.308333333333333,-0.475
3.311111111111111,-0.475
3.313888888888889,-0.485
3.316666666666667,-0.47
3.3194444444444446,-0.455
3.3222222222222224,-0.41
3.325,-0.375
3.327777777777778,-0.375
3.3305555555555557,-0.38
3.3333333333333335,-0.39
3.3361111111111112,-0.36
3.338888888888889,-0.35
3.341666666666667,-0.325
3.3444444444444446,-0.33
3.3472222222222223,-0.325
3.35,-0.315
3.352777777777778,-0.28
3.3555555555555556,-0.27
3.3583333333333334,-0.28
3.361111111111111,-0.32
3.363888888888889,-0.365
3.3666666666666667,-0.405
3.3694444444444445,-0.4
3.3722222222222222,-0.35
3.375,-0.325
3.3777777777777778,-0.32
3.3805555555555555,-0.355
3.3833333333333333,-0.395
3.386111111111111,-0.415
3.388888888888889,-0.435
3.3916666666666666,-0.44
3.3944444444444444,-0.465
3.397222222222222,-0.5
3.4,-0.54
3.4027777777777777,-0.565
3.4055555555555554,-0.585
3.408333333333333,-0.59
3.411111111111111,-0.625
3.4138888888888888,-0.64
3.4166666666666665,-0.635
3.4194444444444443,-0.61
3.422222222222222,-0.58
3.425,-0.565
3.4277777777777776,-0.56
3.4305555555555554,-0.565
3.433333333333333,-0.53
3.436111111111111,-0.485
3.438888888888889,-0.445
3.441666666666667,-0.405
3.4444444444444446,-0.395
3.4472222222222224,-0.395
3.45,-0.39
3.452777777777778,-0.37
3.4555555555555557,-0.355
3.4583333333333335,-0.32
3.4611111111111112,-0.31
3.463888888888889,-0.29
3.466666666666667,-0.29
3.4694444444444446,-0.305
3.4722222222222223,-0.28
3.475,-0.28
3.477777777777778,-0.26
3.4805555555555556,-0.26
3.4833333333333334,-0.265
3.486111111111111,-0.255
3.488888888888889,-0.235
3.4916666666666667,-0.19
3.4944444444444445,-0.165
3.4972222222222222,-0.155
3.5,-0.13
3.5027777777777778,-0.09
3.5055555555555555,-0.07
3.5083333333333333,-0.035
3.511111111111111,0.0
3.513888888888889,0.01
3.5166666666666666,-0.005
3.5194444444444444,-0.015
3.522222222222222,-0.025
3.525,-0.035
3.5277777777777777,-0.06
3.5305555555555554,-0.1
3.533333333333333,-0.15
3.536111111111111,-0.18
3.5388888888888888,-0.18
3.5416666666666665,-0.18
3.5444444444444443,-0.245
3.547222222222222,-0.33
3.55,-0.38
3.5527777777777776,-0.425
3.5555555555555554,-0.45
3.558333333333333,-0.45
3.561111111111111,-0.455
3.563888888888889,-0.485
3.566666666666667,-0.535
3.5694444444444446,-0.54
3.5722222222222224,-0.53
3.575,-0.49
3.577777777777778,-0.475
3.5805555555555557,-0.485
3.5833333333333335,-0.505
3.5861111111111112,-0.515
3.588888888888889,-0.495
3.591666666666667,-0.475
3.5944444444444446,-0.485
3.5972222222222223,-0.51
3.6,-0.52
3.602777777777778,-0.505
3.6055555555555556,-0.515
3.6083333333333334,-0.52
3.611111111111111,-0.535
3.613888888888889,-0.545
3.6166666666666667,-0.56
3.6194444444444445,-0.57
3.6222222222222222,-0.57
3.625,-0.605
3.6277777777777778,-0.595
3.6305555555555555,-0.535
3.6333333333333333,-0.445
3.636111111111111,-0.295
3.638888888888889,-0.105
3.6416666666666666,0.17
3.6444444444444444,0.495
3.647222222222222,0.79
3.65,1.03
3.6527777777777777,1.24
3.6555555555555554,1.43
3.658333333333333,1.48
3.661111111111111,1.31
3.6638888888888888,0.925
3.6666666666666665,0.495
3.6694444444444443,0.075
3.672222222222222,-0.255
3.675,-0.46
3.6777777777777776,-0.57
3.6805555555555554,-0.635
3.683333333333333,-0.685
3.686111111111111,-0.695
3.688888888888889,-0.675
3.691666666666667,-0.655
3.6944444444444446,-0.65
3.6972222222222224,-0.66
3.7,-0.665
3.702777777777778,-0.65
3.7055555555555557,-0.625
3.7083333333333335,-0.615
3.7111111111111112,-0.62
3.713888888888889,-0.64
3.716666666666667,-0.65
3.7194444444444446,-0.625
3.7222222222222223,-0.595
3.725,-0.545
3.727777777777778,-0.535
3.7305555555555556,-0.54
3.7333333333333334,-0.53
3.736111111111111,-0.51
3.738888888888889,-0.51
3.7416666666666667,-0.475
3.7444444444444445,-0.465
3.7472222222222222,-0.465
3.75,-0.47
3.7527777777777778,-0.465
3.7555555555555555,-0.45
3.7583333333333333,-0.435
3.761111111111111,-0.415
3.763888888888889,-0.42
3.7666666666666666,-0.42
3.7694444444444444,-0.425
3.772222222222222,-0.43
3.775,-0.4
3.7777777777777777,-0.395
3.7805555555555554,-0.4
3.783333333333333,-0.38
3.786111111111111,-0.345
3.7888888888888888,-0.305
3.7916666666666665,-0.305
3.7944444444444443,-0.335
3.797222222222222,-0.345
3.8,-0.365
3.8027777777777776,-0.35
3.8055555555555554,-0.32
3.808333333333333,-0.285
3.811111111111111,-0.295
3.813888888888889,-0.305
3.816666666666667,-0.35
3.8194444444444446,-0.37
3.8222222222222224,-0.36
3.825,-0.36
3.827777777777778,-0.38
3.8305555555555557,-0.415
3.8333333333333335,-0.41
3.8361111111111112,-0.405
3.838888888888889,-0.43
3.841666666666667,-0.43
3.8444444444444446,-0.455
3.8472222222222223,-0.48
3.85,-0.47
3.852777777777778,-0.46
3.8555555555555556,-0.43
3.8583333333333334,-0.4
3.861111111111111,-0.395
3.863888888888889,-0.4
3.8666666666666667,-0.405
3.8694444444444445,-0.39
3.8722222222222222,-0.365
3.875,-0.35
3.8777777777777778,-0.32
3.8805555555555555,-0.31
3.8833333333333333,-0.31
3.886111111111111,-0.32
3.888888888888889,-0.32
3.8916666666666666,-0.305
3.8944444444444444,-0.31
3.897222222222222,-0.315
3.9,-0.325
3.9027777777777777,-0.305
3.9055555555555554,-0.27
3.908333333333333,-0.26
3.911111111111111,-0.255
3.9138888888888888,-0.27
3.9166666666666665,-0.285
3.9194444444444443,-0.3
3.922222222222222,-0.35
3.925,-0.365
3.9277777777777776,-0.385
3.9305555555555554,-0.41
3.933333333333333,-0.44
3.936111111111111,-0.445
3.938888888888889,-0.425
3.941666666666667,-0.395
3.9444444444444446,-0.38
3.9472222222222224,-0.4
3.95,-0.425
3.952777777777778,-0.425
3.9555555555555557,-0.415
3.9583333333333335,-0.4
3.9611111111111112,-0.395
3.963888888888889,-0.395
3.966666666666667,-0.365
3.9694444444444446,-0.335
3.9722222222222223,-0.335
3.975,-0.295
3.977777777777778,-0.265
3.9805555555555556,-0.26
3.9833333333333334,-0.24
3.986111111111111,-0.2
3.988888888888889,-0.175
3.9916666666666667,-0.175
3.9944444444444445,-0.17
3.9972222222222222,-0.175
4.0,-0.185
4.002777777777778,-0.185
4.0055555555555555,-0.19
4.008333333333334,-0.175
4.011111111111111,-0.17
4.013888888888889,-0.14
4.016666666666667,-0.07
4.019444444444445,0.005
4.022222222222222,0.035
4.025,0.045
4.027777777777778,0.0
4.030555555555556,-0.06
4.033333333333333,-0.07
4.036111111111111,-0.055
4.038888888888889,-0.065
4.041666666666667,-0.07
4.044444444444444,-0.095
4.0472222222222225,-0.125
4.05,-0.14
4.052777777777778,-0.14
4.055555555555555,-0.13
4.058333333333334,-0.135
4.061111111111111,-0.145
4.063888888888889,-0.19
4.066666666666666,-0.2
4.069444444444445,-0.21
4.072222222222222,-0.205
4.075,-0.2
4.0777777777777775,-0.205
4.080555555555556,-0.245
4.083333333333333,-0.26
4.086111111111111,-0.26
4.088888888888889,-0.235
4.091666666666667,-0.2
4.094444444444444,-0.215
4.097222222222222,-0.21
4.1,-0.225
4.102777777777778,-0.23
4.105555555555555,-0.21
4.108333333333333,-0.185
4.111111111111111,-0.165
4.113888888888889,-0.165
4.116666666666666,-0.17
4.1194444444444445,-0.16
4.122222222222222,-0.165
4.125,-0.16
4.127777777777778,-0.16
4.1305555555555555,-0.17
4.133333333333334,-0.205
4.136111111111111,-0.21
4.138888888888889,-0.22
4.141666666666667,-0.165
4.144444444444445,-0.095
4.147222222222222,-0.005
4.15,0.145
4.152777777777778,0.325
4.155555555555556,0.535
4.158333333333333,0.795
4.161111111111111,1.055
4.163888888888889,1.27
4.166666666666667,1.44
4.169444444444444,1.5
4.1722222222222225,1.335
4.175,1.0
4.177777777777778,0.63
4.180555555555555,0.27
4.183333333333334,-0.01
4.186111111111111,-0.145
4.188888888888889,-0.17
4.191666666666666,-0.195
4.194444444444445,-0.25
4.197222222222222,-0.3
4.2,-0.31
4.2027777777777775,-0.31
4.205555555555556,-0.32
4.208333333333333,-0.34
4.211111111111111,-0.365
4.213888888888889,-0.385
4.216666666666667,-0.4
4.219444444444444,-0.4
4.222222222222222,-0.375
4.225,-0.34
4.227777777777778,-0.31
4.230555555555555,-0.295
4.233333333333333,-0.305
4.236111111111111,-0.305
4.238888888888889,-0.285
4.241666666666666,-0.28
4.2444444444444445,-0.28
4.247222222222222,-0.285
4.25,-0.29
4.252777777777778,-0.295
4.2555555555555555,-0.275
4.258333333333334,-0.24
4.261111111111111,-0.23
4.263888888888889,-0.22
4.266666666666667,-0.215
4.269444444444445,-0.195
4.272222222222222,-0.13
4.275,-0.07
4.277777777777778,-0.04
4.280555555555556,-0.015
4.283333333333333,0.025
4.286111111111111,0.07
4.288888888888889,0.125
4.291666666666667,0.175
4.294444444444444,0.235
4.2972222222222225,0.31
4.3,0.39
4.302777777777778,0.38
4.305555555555555,0.305
4.308333333333334,0.285
4.311111111111111,0.32
4.313888888888889,0.36
4.316666666666666,0.36
4.319444444444445,0.32
4.322222222222222,0.275
4.325,0.215
4.3277777777777775,0.17
4.330555555555556,0.13
4.333333333333333,0.14
4.336111111111111,0.195
4.338888888888889,0.27
4.341666666666667,0.34
4.344444444444444,0.335
4.347222222222222,0.25
4.35,0.17
4.352777777777778,0.1
4.355555555555555,0.07
4.358333333333333,0.02
4.361111111111111,-0.025
4.363888888888889,-0.055
4.366666666666666,-0.05
4.3694444444444445,-0.04
4.372222222222222,-0.06
4.375,-0.125
4.377777777777778,-0.12
4.3805555555555555,-0.065
4.383333333333334,-0.02
4.386111111111111,0.0
4.388888888888889,0.025
4.391666666666667,0.065
4.394444444444445,0.075
4.397222222222222,0.035
4.4,0.0
4.402777777777778,0.005
4.405555555555556,0.005
4.408333333333333,0.035
4.411111111111111,0.025
4.413888888888889,0.0
4.416666666666667,-0.04
4.419444444444444,-0.08
4.4222222222222225,-0.115
4.425,-0.13
4.427777777777778,-0.145
4.430555555555555,-0.135
4.433333333333334,-0.145
4.436111111111111,-0.16
4.438888888888889,-0.155
4.441666666666666,-0.15
4.444444444444445,-0.14
4.447222222222222,-0.14
4.45,-0.145
4.4527777777777775,-0.14
4.455555555555556,-0.125
4.458333333333333,-0.13
4.461111111111111,-0.155
4.463888888888889,-0.215
4.466666666666667,-0.285
4.469444444444444,-0.325
4.472222222222222,-0.35
4.475,-0.345
4.477777777777778,-0.34
4.480555555555555,-0.345
4.483333333333333,-0.365
4.486111111111111,-0.37
4.488888888888889,-0.37
4.491666666666666,-0.35
4.4944444444444445,-0.33
4.497222222222222,-0.345
4.5,-0.35
4.502777777777778,-0.345
4.5055555555555555,-0.31
4.508333333333334,-0.285
4.511111111111111,-0.285
4.513888888888889,-0.29
4.516666666666667,-0.295
4.519444444444445,-0.305
4.522222222222222,-0.305
4.525,-0.285
4.527777777777778,-0.275
4.530555555555556,-0.28
4.533333333333333,-0.29
4.536111111111111,-0.285
4.538888888888889,-0.25
4.541666666666667,-0.22
4.544444444444444,-0.215
4.5472222222222225,-0.195
4.55,-0.185
4.552777777777778,-0.16
4.555555555555555,-0.145
4.558333333333334,-0.145
4.561111111111111,-0.15
4.563888888888889,-0.17
4.566666666666666,-0.205
4.569444444444445,-0.2
4.572222222222222,-0.195
4.575,-0.175
4.5777777777777775,-0.205
4.580555555555556,-0.26
4.583333333333333,-0.305
4.586111111111111,-0.335
4.588888888888889,-0.35
4.591666666666667,-0.36
4.594444444444444,-0.4
4.597222222222222,-0.435
4.6,-0.455
4.602777777777778,-0.45
4.605555555555555,-0.425
4.608333333333333,-0.44
4.611111111111111,-0.44
4.613888888888889,-0.455
4.616666666666666,-0.435
4.6194444444444445,-0.4
4.622222222222222,-0.38
4.625,-0.39
4.627777777777778,-0.435
4.6305555555555555,-0.45
4.633333333333334,-0.46
4.636111111111111,-0.49
4.638888888888889,-0.51
4.641666666666667,-0.51
4.644444444444445,-0.495
4.647222222222222,-0.49
4.65,-0.49
4.652777777777778,-0.49
4.655555555555556,-0.485
4.658333333333333,-0.475
4.661111111111111,-0.46
4.663888888888889,-0.465
4.666666666666667,-0.45
4.669444444444444,-0.39
4.6722222222222225,-0.315
4.675,-0.21
4.677777777777778,-0.11
4.680555555555555,0.04
4.683333333333334,0.23
4.686111111111111,0.47
4.688888888888889,0.725
4.691666666666666,0.98
4.694444444444445,1.16
4.697222222222222,1.23
4.7,1.095
4.7027777777777775,0.785
4.705555555555556,0.375
4.708333333333333,-0.01
4.711111111111111,-0.26
4.713888888888889,-0.375
4.716666666666667,-0.385
4.719444444444444,-0.39
4.722222222222222,-0.395
4.725,-0.395
4.727777777777778,-0.385
4.730555555555555,-0.38
4.733333333333333,-0.37
4.736111111111111,-0.38
4.738888888888889,-0.4
4.741666666666666,-0.38
4.7444444444444445,-0.385
4.747222222222222,-0.39
4.75,-0.38
4.752777777777778,-0.35
4.7555555555555555,-0.325
4.758333333333334,-0.305
4.761111111111111,-0.3
4.763888888888889,-0.315
4.766666666666667,-0.33
4.769444444444445,-0.335
4.772222222222222,-0.325
4.775,-0.32
4.777777777777778,-0.325
4.780555555555556,-0.34
4.783333333333333,-0.345
4.786111111111111,-0.345
4.788888888888889,-0.33
4.791666666666667,-0.32
4.794444444444444,-0.335
4.7972222222222225,-0.375
4.8,-0.405
4.802777777777778,-0.43
4.805555555555555,-0.41
4.808333333333334,-0.375
4.811111111111111,-0.385
4.813888888888889,-0.41
4.816666666666666,-0.42
4.819444444444445,-0.44
4.822222222222222,-0.45
4.825,-0.475
4.8277777777777775,-0.5
4.830555555555556,-0.53
4.833333333333333,-0.545
4.836111111111111,-0.545
4.838888888888889,-0.505
4.841666666666667,-0.47
4.844444444444444,-0.44
4.847222222222222,-0.425
4.85,-0.42
4.852777777777778,-0.43
4.855555555555555,-0.42
4.858333333333333,-0.4
4.861111111111111,-0.395
4.863888888888889,-0.42
4.866666666666666,-0.415
4.8694444444444445,-0.41
4.872222222222222,-0.385
4.875,-0.355
4.877777777777778,-0.36
4.8805555555555555,-0.355
4.883333333333334,-0.345
4.886111111111111,-0.34
4.888888888888889,-0.325
4.891666666666667,-0.315
4.894444444444445,-0.295
4.897222222222222,-0.3
4.9,-0.31
4.902777777777778,-0.315
4.905555555555556,-0.33
4.908333333333333,-0.325
4.911111111111111,-0.31
4.913888888888889,-0.3
4.916666666666667,-0.305
4.919444444444444,-0.31
4.9222222222222225,-0.29
4.925,-0.28
4.927777777777778,-0.25
4.930555555555555,-0.215
4.933333333333334,-0.18
4.936111111111111,-0.15
4.938888888888889,-0.12
4.941666666666666,-0.125
4.944444444444445,-0.115
4.947222222222222,-0.17
4.95,-0.22
4.9527777777777775,-0.26
4.955555555555556,-0.28
4.958333333333333,-0.26
4.961111111111111,-0.255
4.963888888888889,-0.3
4.966666666666667,-0.355
4.969444444444444,-0.405
4.972222222222222,-0.395
4.975,-0.42
4.977777777777778,-0.405
4.980555555555555,-0.43
4.983333333333333,-0.475
4.986111111111111,-0.505
4.988888888888889,-0.54
4.991666666666666,-0.555
4.9944444444444445,-0.555
4.997222222222222,-0.565
5.0,-0.575
5.002777777777778,-0.605
5.0055555555555555,-0.59
5.008333333333334,-0.585
5.011111111111111,-0.56
5.013888888888889,-0.545
5.016666666666667,-0.55
5.019444444444445,-0.56
5.022222222222222,-0.585
5.025,-0.63
5.027777777777778,-0.65
5.030555555555556,-0.66
5.033333333333333,-0.68
5.036111111111111,-0.69
5.038888888888889,-0.655
5.041666666666667,-0.59
5.044444444444444,-0.54
5.0472222222222225,-0.515
5.05,-0.545
5.052777777777778,-0.55
5.055555555555555,-0.545
5.058333333333334,-0.535
5.061111111111111,-0.525
5.063888888888889,-0.53
5.066666666666666,-0.54
5.069444444444445,-0.54
5.072222222222222,-0.525
5.075,-0.515
5.0777777777777775,-0.53
5.080555555555556,-0.54
5.083333333333333,-0.56
5.086111111111111,-0.555
5.088888888888889,-0.58
5.091666666666667,-0.58
5.094444444444444,-0.575
5.097222222222222,-0.59
5.1,-0.625
5.102777777777778,-0.655
5.105555555555555,-0.695
5.108333333333333,-0.69
5.111111111111111,-0.7
5.113888888888889,-0.72
5.116666666666666,-0.715
5.1194444444444445,-0.695
5.122222222222222,-0.67
5.125,-0.64
5.127777777777778,-0.665
5.1305555555555555,-0.725
5.133333333333334,-0.78
5.136111111111111,-0.76
5.138888888888889,-0.7
5.141666666666667,-0.67
5.144444444444445,-0.625
5.147222222222222,-0.625
5.15,-0.635
5.152777777777778,-0.685
5.155555555555556,-0.74
5.158333333333333,-0.76
5.161111111111111,-0.755
5.163888888888889,-0.755
5.166666666666667,-0.765
5.169444444444444,-0.76
5.1722222222222225,-0.755
5.175,-0.74
5.177777777777778,-0.73
5.180555555555555,-0.71
5.183333333333334,-0.715
5.186111111111111,-0.745
5.188888888888889,-0.78
5.191666666666666,-0.795
5.194444444444445,-0.815
5.197222222222222,-0.79
5.2,-0.735
5.2027777777777775,-0.625
5.205555555555556,-0.46
5.208333333333333,-0.225
5.211111111111111,0.065
5.213888888888889,0.34
5.216666666666667,0.56
5.219444444444444,0.73
5.222222222222222,0.78
5.225,0.62
5.227777777777778,0.27
5.230555555555555,-0.135
5.233333333333333,-0.51
5.236111111111111,-0.755
5.238888888888889,-0.83
5.241666666666666,-0.805
5.2444444444444445,-0.805
5.247222222222222,-0.815
5.25,-0.82
5.252777777777778,-0.785
5.2555555555555555,-0.715
5.258333333333334,-0.655
5.261111111111111,-0.64
5.263888888888889,-0.705
5.266666666666667,-0.785
5.269444444444445,-0.835
5.272222222222222,-0.83
5.275,-0.8
5.277777777777778,-0.81
5.280555555555556,-0.805
5.283333333333333,-0.85
5.286111111111111,-0.855
5.288888888888889,-0.85
5.291666666666667,-0.87
5.294444444444444,-0.905
5.2972222222222225,-0.925
5.3,-0.955
5.302777777777778,-0.955
5.305555555555555,-0.955
5.308333333333334,-0.94
5.311111111111111,-0.945
5.313888888888889,-0.99
5.316666666666666,-1.02
5.319444444444445,-1.04
5.322222222222222,-1.05
5.325,-1.025
5.3277777777777775,-1.025
5.330555555555556,-1.025
5.333333333333333,-1.005
5.336111111111111,-0.965
5.338888888888889,-0.92
5.341666666666667,-0.89
5.344444444444444,-0.9
5.347222222222222,-0.92
5.35,-0.935
5.352777777777778,-0.925
5.355555555555555,-0.88
5.358333333333333,-0.86
5.361111111111111,-0.88
5.363888888888889,-0.885
5.366666666666666,-0.88
5.3694444444444445,-0.855
5.372222222222222,-0.83
5.375,-0.82
5.377777777777778,-0.805
5.3805555555555555,-0.825
5.383333333333334,-0.835
5.386111111111111,-0.84
5.388888888888889,-0.8
5.391666666666667,-0.75
5.394444444444445,-0.705
5.397222222222222,-0.69
5.4,-0.71
5.402777777777778,-0.74
5.405555555555556,-0.755
5.408333333333333,-0.75
5.411111111111111,-0.725
5.413888888888889,-0.725
5.416666666666667,-0.72
5.419444444444444,-0.71
5.4222222222222225,-0.68
5.425,-0.66
5.427777777777778,-0.665
5.430555555555555,-0.68
5.433333333333334,-0.675
5.436111111111111,-0.645
5.438888888888889,-0.625
5.441666666666666,-0.6
5.444444444444445,-0.585
5.447222222222222,-0.58
5.45,-0.605
5.4527777777777775,-0.56
5.455555555555556,-0.545
5.458333333333333,-0.54
5.461111111111111,-0.535
5.463888888888889,-0.545
5.466666666666667,-0.55
5.469444444444444,-0.555
5.472222222222222,-0.54
5.475,-0.515
5.477777777777778,-0.53
5.480555555555555,-0.56
5.483333333333333,-0.575
5.486111111111111,-0.605
5.488888888888889,-0.61
5.491666666666666,-0.59
5.4944444444444445,-0.59
5.497222222222222,-0.62
5.5,-0.65
5.502777777777778,-0.665
5.5055555555555555,-0.665
5.508333333333334,-0.665
5.511111111111111,-0.715
5.513888888888889,-0.765
5.516666666666667,-0.8
5.519444444444445,-0.82
5.522222222222222,-0.81
5.525,-0.805
5.527777777777778,-0.815
5.530555555555556,-0.82
5.533333333333333,-0.845
5.536111111111111,-0.855
5.538888888888889,-0.845
5.541666666666667,-0.885
5.544444444444444,-0.9
5.5472222222222225,-0.915
5.55,-0.94
5.552777777777778,-0.935
5.555555555555555,-0.9
5.558333333333334,-0.895
5.561111111111111,-0.895
5.563888888888889,-0.92
5.566666666666666,-0.925
5.569444444444445,-0.915
5.572222222222222,-0.89
5.575,-0.86
5.5777777777777775,-0.855
5.580555555555556,-0.865
5.583333333333333,-0.89
5.586111111111111,-0.875
5.588888888888889,-0.82
5.591666666666667,-0.755
5.594444444444444,-0.74
5.597222222222222,-0.755
5.6,-0.79
5.602777777777778,-0.84
5.605555555555555,-0.87
5.608333333333333,-0.855
5.611111111111111,-0.85
5.613888888888889,-0.845
5.616666666666666,-0.865
5.6194444444444445,-0.86
5.622222222222222,-0.845
5.625,-0.845
5.627777777777778,-0.89
5.6305555555555555,-0.94
5.633333333333334,-0.98
5.636111111111111,-0.97
5.638888888888889,-0.95
5.641666666666667,-0.945
5.644444444444445,-0.945
5.647222222222222,-0.95
5.65,-0.94
5.652777777777778,-0.91
5.655555555555556,-0.89
5.658333333333333,-0.885
5.661111111111111,-0.9
5.663888888888889,-0.92
5.666666666666667,-0.93
5.669444444444444,-0.915
5.6722222222222225,-0.88
5.675,-0.86
5.677777777777778,-0.85
5.680555555555555,-0.845
5.683333333333334,-0.835
5.686111111111111,-0.835
5.688888888888889,-0.85
5.691666666666666,-0.895
5.694444444444445,-0.88
5.697222222222222,-0.87
5.7,-0.84
5.7027777777777775,-0.82
5.705555555555556,-0.82
5.708333333333333,-0.82
5.711111111111111,-0.81
5.713888888888889,-0.785
5.716666666666667,-0.67
5.719444444444444,-0.55
5.722222222222222,-0.375
5.725,-0.12
5.727777777777778,0.165
5.730555555555555,0.42
5.733333333333333,0.615
5.736111111111111,0.705
5.738888888888889,0.59
5.741666666666666,0.245
5.7444444444444445,-0.205
5.747222222222222,-0.62
5.75,-0.945
5.752777777777778,-1.11
5.7555555555555555,-1.14
5.758333333333334,-1.08
5.761111111111111,-1.005
5.763888888888889,-0.98
5.766666666666667,-0.98
5.769444444444445,-0.965
5.772222222222222,-0.96
5.775,-0.955
5.777777777777778,-0.945
5.780555555555556,-0.95
5.783333333333333,-0.97
5.786111111111111,-0.985
5.788888888888889,-0.97
5.791666666666667,-0.98
5.794444444444444,-1.01
5.7972222222222225,-1.015
5.8,-1.025
5.802777777777778,-1.04
5.805555555555555,-1.045
5.808333333333334,-1.02
5.811111111111111,-0.975
5.813888888888889,-0.985
5.816666666666666,-0.975
5.819444444444445,-0.965
5.822222222222222,-0.955
5.825,-0.925
5.8277777777777775,-0.93
5.830555555555556,-0.94
5.833333333333333,-0.93
5.836111111111111,-0.92
5.838888888888889,-0.915
5.841666666666667,-0.89
5.844444444444444,-0.85
5.847222222222222,-0.85
5.85,-0.86
5.852777777777778,-0.875
5.855555555555555,-0.85
5.858333333333333,-0.83
5.861111111111111,-0.835
5.863888888888889,-0.85
5.866666666666666,-0.875
5.8694444444444445,-0.88
5.872222222222222,-0.875
5.875,-0.85
5.877777777777778,-0.85
5.8805555555555555,-0.88
5.883333333333334,-0.895
5.886111111111111,-0.92
5.888888888888889,-0.91
5.891666666666667,-0.915
5.894444444444445,-0.935
5.897222222222222,-0.95
5.9,-0.95
5.902777777777778,-0.91
5.905555555555556,-0.865
5.908333333333333,-0.82
5.911111111111111,-0.81
5.913888888888889,-0.82
5.916666666666667,-0.835
5.919444444444444,-0.825
5.9222222222222225,-0.785
5.925,-0.74
5.927777777777778,-0.73
5.930555555555555,-0.735
5.933333333333334,-0.765
5.936111111111111,-0.765
5.938888888888889,-0.725
5.941666666666666,-0.685
5.944444444444445,-0.665
5.947222222222222,-0.66
5.95,-0.67
5.9527777777777775,-0.65
5.955555555555556,-0.625
5.958333333333333,-0.585
5.961111111111111,-0.575
5.963888888888889,-0.595
5.966666666666667,-0.605
5.969444444444444,-0.605
5.972222222222222,-0.59
5.975,-0.57
5.977777777777778,-0.56
5.980555555555555,-0.545
5.983333333333333,-0.545
5.986111111111111,-0.56
5.988888888888889,-0.59
5.991666666666666,-0.595
5.9944444444444445,-0.605
5.997222222222222,-0.615
6.0,-0.615
6.002777777777778,-0.63
6.0055555555555555,-0.625
6.008333333333334,-0.635
6.011111111111111,-0.67
6.013888888888889,-0.715
6.016666666666667,-0.74
6.019444444444445,-0.745
6.022222222222222,-0.735
6.025,-0.735
6.027777777777778,-0.75
6.030555555555556,-0.75
6.033333333333333,-0.75
6.036111111111111,-0.76
6.038888888888889,-0.73
6.041666666666667,-0.68
6.044444444444444,-0.675
6.0472222222222225,-0.685
6.05,-0.705
6.052777777777778,-0.695
6.055555555555555,-0.665
6.058333333333334,-0.66
6.061111111111111,-0.675
6.063888888888889,-0.71
6.066666666666666,-0.705
6.069444444444445,-0.69
6.072222222222222,-0.67
6.075,-0.655
6.0777777777777775,-0.615
6.080555555555556,-0.6
6.083333333333333,-0.59
6.086111111111111,-0.58
6.088888888888889,-0.54
6.091666666666667,-0.52
6.094444444444444,-0.515
6.097222222222222,-0.505
6.1,-0.51
6.102777777777778,-0.48
6.105555555555555,-0.44
6.108333333333333,-0.42
6.111111111111111,-0.435
6.113888888888889,-0.46
6.116666666666666,-0.47
6.1194444444444445,-0.46
6.122222222222222,-0.425
6.125,-0.4
6.127777777777778,-0.395
6.1305555555555555,-0.415
6.133333333333334,-0.435
6.136111111111111,-0.46
6.138888888888889,-0.455
6.141666666666667,-0.43
6.144444444444445,-0.445
6.147222222222222,-0.48
6.15,-0.52
6.152777777777778,-0.545
6.155555555555556,-0.54
6.158333333333333,-0.52
6.161111111111111,-0.52
6.163888888888889,-0.525
6.166666666666667,-0.525
6.169444444444444,-0.53
6.1722222222222225,-0.525
6.175,-0.525
6.177777777777778,-0.515
6.180555555555555,-0.51
6.183333333333334,-0.54
6.186111111111111,-0.54
6.188888888888889,-0.545
6.191666666666666,-0.54
6.194444444444445,-0.55
6.197222222222222,-0.565
6.2,-0.57
6.2027777777777775,-0.585
6.205555555555556,-0.56
6.208333333333333,-0.545
6.211111111111111,-0.525
6.213888888888889,-0.525
6.216666666666667,-0.545
6.219444444444444,-0.57
6.222222222222222,-0.58
6.225,-0.55
6.227777777777778,-0.465
6.230555555555555,-0.34
6.233333333333333,-0.21
6.236111111111111,-0.015
6.238888888888889,0.21
6.241666666666666,0.48
6.2444444444444445,0.74
6.247222222222222,0.96
6.25,1.13
6.252777777777778,1.155
6.2555555555555555,0.965
6.258333333333334,0.62
6.261111111111111,0.23
6.263888888888889,-0.09
6.266666666666667,-0.355
6.269444444444445,-0.47
6.272222222222222,-0.48
6.275,-0.45
6.277777777777778,-0.45
6.280555555555556,-0.47
6.283333333333333,-0.49
6.286111111111111,-0.465
6.288888888888889,-0.45
6.291666666666667,-0.44
6.294444444444444,-0.445
6.2972222222222225,-0.47
6.3,-0.495
6.302777777777778,-0.51
6.305555555555555,-0.5
6.308333333333334,-0.485
6.311111111111111,-0.5
6.313888888888889,-0.515
6.316666666666666,-0.525
6.319444444444445,-0.51
6.322222222222222,-0.485
6.325,-0.455
6.3277777777777775,-0.425
6.330555555555556,-0.44
6.333333333333333,-0.455
6.336111111111111,-0.46
6.338888888888889,-0.43
6.341666666666667,-0.41
6.344444444444444,-0.395
6.347222222222222,-0.41
6.35,-0.42
6.352777777777778,-0.395
6.355555555555555,-0.37
6.358333333333333,-0.36
6.361111111111111,-0.36
6.363888888888889,-0.365
6.366666666666666,-0.365
6.3694444444444445,-0.35
6.372222222222222,-0.32
6.375,-0.29
6.377777777777778,-0.3
6.3805555555555555,-0.305
6.383333333333334,-0.3
6.386111111111111,-0.265
6.388888888888889,-0.235
6.391666666666667,-0.22
6.394444444444445,-0.2
6.397222222222222,-0.185
6.4,-0.165
6.402777777777778,-0.145
6.405555555555556,-0.115
6.408333333333333,-0.08
6.411111111111111,-0.065
6.413888888888889,-0.085
6.416666666666667,-0.13
6.419444444444444,-0.14
6.4222222222222225,-0.125
6.425,-0.085
6.427777777777778,-0.055
6.430555555555555,-0.08
6.433333333333334,-0.105
6.436111111111111,-0.135
6.438888888888889,-0.095
6.441666666666666,-0.05
6.444444444444445,-0.015
6.447222222222222,0.0
6.45,0.04
6.4527777777777775,0.08
6.455555555555556,0.095
6.458333333333333,0.105
6.461111111111111,0.06
6.463888888888889,0.04
6.466666666666667,0.04
6.469444444444444,0.07
6.472222222222222,0.115
6.475,0.135
6.477777777777778,0.095
6.480555555555555,0.065
6.483333333333333,0.045
6.486111111111111,0.045
6.488888888888889,0.055
6.491666666666666,0.04
6.4944444444444445,-0.005
6.497222222222222,-0.025
6.5,-0.055
6.502777777777778,-0.06
6.5055555555555555,-0.075
6.508333333333334,-0.1
6.511111111111111,-0.12
6.513888888888889,-0.155
6.516666666666667,-0.205
6.519444444444445,-0.24
6.522222222222222,-0.26
6.525,-0.26
6.527777777777778,-0.26
6.530555555555556,-0.26
6.533333333333333,-0.265
6.536111111111111,-0.255
6.538888888888889,-0.265
6.541666666666667,-0.25
6.544444444444444,-0.26
6.5472222222222225,-0.275
6.55,-0.295
6.552777777777778,-0.275
6.555555555555555,-0.245
6.558333333333334,-0.225
6.561111111111111,-0.215
6.563888888888889,-0.215
6.566666666666666,-0.24
6.569444444444445,-0.26
6.572222222222222,-0.255
6.575,-0.21
6.5777777777777775,-0.2
6.580555555555556,-0.215
6.583333333333333,-0.245
6.586111111111111,-0.255
6.588888888888889,-0.225
6.591666666666667,-0.19
6.594444444444444,-0.175
6.597222222222222,-0.185
6.6,-0.19
6.602777777777778,-0.17
6.605555555555555,-0.105
6.608333333333333,-0.055
6.611111111111111,-0.04
6.613888888888889,-0.06
6.616666666666666,-0.085
6.6194444444444445,-0.075
6.622222222222222,-0.025
6.625,0.02
6.627777777777778,0.045
6.6305555555555555,0.025
6.633333333333334,-0.005
6.636111111111111,-0.02
6.638888888888889,-0.015
6.641666666666667,-0.005
6.644444444444445,-0.02
6.647222222222222,-0.055
6.65,-0.1
6.652777777777778,-0.115
6.655555555555556,-0.12
6.658333333333333,-0.105
6.661111111111111,-0.13
6.663888888888889,-0.165
6.666666666666667,-0.195
6.669444444444444,-0.2
6.6722222222222225,-0.225
6.675,-0.25
6.677777777777778,-0.25
6.680555555555555,-0.28
6.683333333333334,-0.305
6.686111111111111,-0.305
6.688888888888889,-0.285
6.691666666666666,-0.245
6.694444444444445,-0.235
6.697222222222222,-0.26
6.7,-0.28
6.7027777777777775,-0.285
6.705555555555556,-0.255
6.708333333333333,-0.23
6.711111111111111,-0.2
6.713888888888889,-0.205
6.716666666666667,-0.225
6.719444444444444,-0.265
6.722222222222222,-0.28
6.725,-0.265
6.727777777777778,-0.23
6.730555555555555,-0.135
6.733333333333333,-0.01
6.736111111111111,0.155
6.738888888888889,0.39
6.741666666666666,0.7
6.7444444444444445,1.04
6.747222222222222,1.34
6.75,1.58
6.752777777777778,1.705
6.7555555555555555,1.61
6.758333333333334,1.33
6.761111111111111,0.985
6.763888888888889,0.62
6.766666666666667,0.28
6.769444444444445,0.06
6.772222222222222,-0.015
6.775,-0.03
6.777777777777778,-0.06
6.780555555555556,-0.08
6.783333333333333,-0.075
6.786111111111111,-0.08
6.788888888888889,-0.04
6.791666666666667,-0.01
6.794444444444444,-0.02
6.7972222222222225,-0.05
6.8,-0.085
6.802777777777778,-0.095
6.805555555555555,-0.105
6.808333333333334,-0.09
6.811111111111111,-0.065
6.813888888888889,-0.08
6.816666666666666,-0.09
6.819444444444445,-0.09
6.822222222222222,-0.08
6.825,-0.06
6.8277777777777775,-0.05
6.830555555555556,-0.055
6.833333333333333,-0.03
6.836111111111111,-0.01
6.838888888888889,-0.01
6.841666666666667,0.005
6.844444444444444,0.02
6.847222222222222,0.02
6.85,0.015
6.852777777777778,0.01
6.855555555555555,0.02
6.858333333333333,0.045
6.861111111111111,0.06
6.863888888888889,0.065
6.866666666666666,0.065
6.8694444444444445,0.06
6.872222222222222,0.07
6.875,0.09
6.877777777777778,0.085
6.8805555555555555,0.07
6.883333333333334,0.105
6.886111111111111,0.165
6.888888888888889,0.19
6.891666666666667,0.205
6.894444444444445,0.175
6.897222222222222,0.165
6.9,0.185
6.902777777777778,0.2
6.905555555555556,0.22
6.908333333333333,0.25
6.911111111111111,0.275
6.913888888888889,0.29
6.916666666666667,0.28
6.919444444444444,0.27
6.9222222222222225,0.29
6.925,0.32
6.927777777777778,0.33
6.930555555555555,0.315
6.933333333333334,0.33
6.936111111111111,0.325
6.938888888888889,0.36
6.941666666666666,0.38
6.944444444444445,0.39
6.947222222222222,0.38
6.95,0.375
6.9527777777777775,0.365
6.955555555555556,0.37
6.958333333333333,0.395
6.961111111111111,0.425
6.963888888888889,0.445
6.966666666666667,0.43
6.969444444444444,0.445
6.972222222222222,0.47
6.975,0.495
6.977777777777778,0.51
6.980555555555555,0.505
6.983333333333333,0.46
6.986111111111111,0.47
6.988888888888889,0.5
6.991666666666666,0.54
6.9944444444444445,0.56
6.997222222222222,0.56
7.0,0.565
7.002777777777778,0.525
7.0055555555555555,0.525
7.008333333333334,0.555
7.011111111111111,0.57
7.013888888888889,0.56
7.016666666666667,0.525
7.019444444444445,0.485
7.022222222222222,0.46
7.025,0.465
7.027777777777778,0.46
7.030555555555556,0.455
7.033333333333333,0.435
7.036111111111111,0.41
7.038888888888889,0.39
7.041666666666667,0.4
7.044444444444444,0.395
7.0472222222222225,0.375
7.05,0.33
7.052777777777778,0.31
7.055555555555555,0.305
7.058333333333334,0.32
7.061111111111111,0.3
7.063888888888889,0.295
7.066666666666666,0.285
7.069444444444445,0.29
7.072222222222222,0.33
7.075,0.345
7.0777777777777775,0.36
7.080555555555556,0.365
7.083333333333333,0.38
7.086111111111111,0.39
7.088888888888889,0.4
7.091666666666667,0.415
7.094444444444444,0.42
7.097222222222222,0.415
7.1,0.42
7.102777777777778,0.44
7.105555555555555,0.475
7.108333333333333,0.53
7.111111111111111,0.55
7.113888888888889,0.52
7.116666666666666,0.465
7.1194444444444445,0.465
7.122222222222222,0.49
7.125,0.52
7.127777777777778,0.525
7.1305555555555555,0.495
7.133333333333334,0.465
7.136111111111111,0.45
7.138888888888889,0.455
7.141666666666667,0.46
7.144444444444445,0.46
7.147222222222222,0.405
7.15,0.345
7.152777777777778,0.325
7.155555555555556,0.345
7.158333333333333,0.36
7.161111111111111,0.365
7.163888888888889,0.355
7.166666666666667,0.34
7.169444444444444,0.32
7.1722222222222225,0.335
7.175,0.335
7.177777777777778,0.35
7.180555555555555,0.325
7.183333333333334,0.31
7.186111111111111,0.31
7.188888888888889,0.315
7.191666666666666,0.355
7.194444444444445,0.36
7.197222222222222,0.34
7.2,0.295
7.2027777777777775,0.295
7.205555555555556,0.325
7.208333333333333,0.36
7.211111111111111,0.35
7.213888888888889,0.28
7.216666666666667,0.205
7.219444444444444,0.165
7.222222222222222,0.205
7.225,0.325
7.227777777777778,0.445
7.230555555555555,0.63
7.233333333333333,0.85
7.236111111111111,1.13
7.238888888888889,1.475
7.241666666666666,1.785
7.2444444444444445,1.96
7.247222222222222,1.905
7.25,1.64
7.252777777777778,1.31
7.2555555555555555,1.01
7.258333333333334,0.735
7.261111111111111,0.515
7.263888888888889,0.415
7.266666666666667,0.395
7.269444444444445,0.405
7.272222222222222,0.425
7.275,0.43
7.277777777777778,0.445
7.280555555555556,0.435
7.283333333333333,0.42
7.286111111111111,0.41
7.288888888888889,0.415
7.291666666666667,0.44
7.294444444444444,0.44
7.2972222222222225,0.415
7.3,0.385
7.302777777777778,0.36
7.305555555555555,0.35
7.308333333333334,0.375
7.311111111111111,0.37
7.313888888888889,0.345
7.316666666666666,0.315
7.319444444444445,0.31
7.322222222222222,0.325
7.325,0.36
7.3277777777777775,0.345
7.330555555555556,0.32
7.333333333333333,0.31
7.336111111111111,0.315
7.338888888888889,0.325
7.341666666666667,0.365
7.344444444444444,0.365
7.347222222222222,0.34
7.35,0.31
7.352777777777778,0.32
7.355555555555555,0.345
7.358333333333333,0.38
7.361111111111111,0.39
7.363888888888889,0.395
7.366666666666666,0.385
7.3694444444444445,0.41
7.372222222222222,0.42
7.375,0.445
7.377777777777778,0.455
7.3805555555555555,0.445
7.383333333333334,0.43
7.386111111111111,0.435
7.388888888888889,0.455
7.391666666666667,0.47
7.394444444444445,0.455
7.397222222222222,0.44
7.4,0.435
7.402777777777778,0.455
7.405555555555556,0.495
7.408333333333333,0.54
7.411111111111111,0.56
7.413888888888889,0.56
7.416666666666667,0.545
7.419444444444444,0.56
7.4222222222222225,0.58
7.425,0.6
7.427777777777778,0.62
7.430555555555555,0.63
7.433333333333334,0.62
7.436111111111111,0.62
7.438888888888889,0.62
7.441666666666666,0.635
7.444444444444445,0.66
7.447222222222222,0.675
7.45,0.68
7.4527777777777775,0.685
7.455555555555556,0.725
7.458333333333333,0.745
7.461111111111111,0.75
7.463888888888889,0.75
7.466666666666667,0.735
7.469444444444444,0.73
7.472222222222222,0.75
7.475,0.77
7.477777777777778,0.775
7.480555555555555,0.775
7.483333333333333,0.74
7.486111111111111,0.72
7.488888888888889,0.7
7.491666666666666,0.685
7.4944444444444445,0.675
7.497222222222222,0.655
7.5,0.62
7.502777777777778,0.585
7.5055555555555555,0.555
7.508333333333334,0.56
7.511111111111111,0.545
7.513888888888889,0.53
7.516666666666667,0.51
7.519444444444445,0.505
7.522222222222222,0.515
7.525,0.535
7.527777777777778,0.52
7.530555555555556,0.51
7.533333333333333,0.505
7.536111111111111,0.5
7.538888888888889,0.495
7.541666666666667,0.51
7.544444444444444,0.535
7.5472222222222225,0.55
7.55,0.545
7.552777777777778,0.53
7.555555555555555,0.555
7.558333333333334,0.58
7.561111111111111,0.59
7.563888888888889,0.565
7.566666666666666,0.555
7.569444444444445,0.58
7.572222222222222,0.64
7.575,0.695
7.5777777777777775,0.705
7.580555555555556,0.71
7.583333333333333,0.695
7.586111111111111,0.7
7.588888888888889,0.695
7.591666666666667,0.705
7.594444444444444,0.695
7.597222222222222,0.675
7.6,0.645
7.602777777777778,0.62
7.605555555555555,0.625
7.608333333333333,0.61
7.611111111111111,0.585
7.613888888888889,0.55
7.616666666666666,0.51
7.6194444444444445,0.475
7.622222222222222,0.485
7.625,0.51
7.627777777777778,0.545
7.6305555555555555,0.55
7.633333333333334,0.52
7.636111111111111,0.495
7.638888888888889,0.485
7.641666666666667,0.48
7.644444444444445,0.475
7.647222222222222,0.44
7.65,0.43
7.652777777777778,0.41
7.655555555555556,0.415
7.658333333333333,0.47
7.661111111111111,0.505
7.663888888888889,0.495
7.666666666666667,0.45
7.669444444444444,0.42
7.6722222222222225,0.43
7.675,0.435
7.677777777777778,0.41
7.680555555555555,0.375
7.683333333333334,0.33
7.686111111111111,0.3
7.688888888888889,0.28
7.691666666666666,0.275
7.694444444444445,0.32
7.697222222222222,0.43
7.7,0.585
7.7027777777777775,0.79
7.705555555555556,1.02
7.708333333333333,1.28
7.711111111111111,1.53
7.713888888888889,1.725
7.716666666666667,1.87
7.719444444444444,1.925
7.722222222222222,1.795
7.725,1.465
7.727777777777778,1.11
7.730555555555555,0.75
7.733333333333333,0.475
7.736111111111111,0.36
7.738888888888889,0.35
7.741666666666666,0.4
7.7444444444444445,0.43
7.747222222222222,0.425
7.75,0.43
7.752777777777778,0.445
7.7555555555555555,0.455
7.758333333333334,0.48
7.761111111111111,0.47
7.763888888888889,0.46
7.766666666666667,0.46
7.769444444444445,0.485
7.772222222222222,0.5
7.775,0.515
7.777777777777778,0.5
7.780555555555556,0.475
7.783333333333333,0.485
7.786111111111111,0.49
7.788888888888889,0.515
7.791666666666667,0.53
7.794444444444444,0.555
7.7972222222222225,0.6
7.8,0.605
7.802777777777778,0.6
7.805555555555555,0.57
7.808333333333334,0.585
7.811111111111111,0.565
7.813888888888889,0.57
7.816666666666666,0.545
7.819444444444445,0.525
7.822222222222222,0.535
7.825,0.575
7.8277777777777775,0.585
7.830555555555556,0.585
7.833333333333333,0.56
7.836111111111111,0.56
7.838888888888889,0.555
7.841666666666667,0.575
7.844444444444444,0.585
7.847222222222222,0.6
7.85,0.595
7.852777777777778,0.565
7.855555555555555,0.58
7.858333333333333,0.6
7.861111111111111,0.605
7.863888888888889,0.605
7.866666666666666,0.605
7.8694444444444445,0.615
7.872222222222222,0.645
7.875,0.685
7.877777777777778,0.71
7.8805555555555555,0.7
7.883333333333334,0.7
7.886111111111111,0.695
7.888888888888889,0.705
7.891666666666667,0.745
7.894444444444445,0.755
7.897222222222222,0.775
7.9,0.78
7.902777777777778,0.78
7.905555555555556,0.78
7.908333333333333,0.79
7.911111111111111,0.81
7.913888888888889,0.83
7.916666666666667,0.825
7.919444444444444,0.83
7.9222222222222225,0.84
7.925,0.86
7.927777777777778,0.87
7.930555555555555,0.875
7.933333333333334,0.88
7.936111111111111,0.87
7.938888888888889,0.89
7.941666666666666,0.92
7.944444444444445,0.935
7.947222222222222,0.93
7.95,0.915
7.9527777777777775,0.92
7.955555555555556,0.91
7.958333333333333,0.91
7.961111111111111,0.94
7.963888888888889,0.955
7.966666666666667,0.94
7.969444444444444,0.915
7.972222222222222,0.915
7.975,0.95
7.977777777777778,0.94
7.980555555555555,0.905
7.983333333333333,0.875
7.986111111111111,0.865
7.988888888888889,0.86
7.991666666666666,0.845
7.9944444444444445,0.815
7.997222222222222,0.8
8.0,0.775
8.002777777777778,0.77
8.005555555555556,0.78
8.008333333333333,0.76
8.011111111111111,0.725
8.01388888888889,0.71
8.016666666666667,0.7
8.019444444444444,0.695
8.022222222222222,0.71
8.025,0.695
8.027777777777779,0.69
8.030555555555555,0.685
8.033333333333333,0.67
8.036111111111111,0.65
8.03888888888889,0.65
8.041666666666666,0.66
8.044444444444444,0.645
8.047222222222222,0.645
8.05,0.66
8.052777777777777,0.695
8.055555555555555,0.72
8.058333333333334,0.75
8.061111111111112,0.77
8.063888888888888,0.79
8.066666666666666,0.8
8.069444444444445,0.81
8.072222222222223,0.845
8.075,0.88
8.077777777777778,0.9
8.080555555555556,0.88
8.083333333333334,0.84
8.08611111111111,0.815
8.088888888888889,0.82
8.091666666666667,0.83
8.094444444444445,0.84
8.097222222222221,0.83
8.1,0.795
8.102777777777778,0.775
8.105555555555556,0.76
8.108333333333333,0.75
8.11111111111111,0.745
8.113888888888889,0.72
8.116666666666667,0.68
8.119444444444444,0.64
8.122222222222222,0.635
8.125,0.64
8.127777777777778,0.645
8.130555555555556,0.655
8.133333333333333,0.655
8.136111111111111,0.645
8.13888888888889,0.645
8.141666666666667,0.645
8.144444444444444,0.63
8.147222222222222,0.615
8.15,0.6
8.152777777777779,0.6
8.155555555555555,0.61
8.158333333333333,0.615
8.161111111111111,0.625
8.16388888888889,0.605
8.166666666666666,0.57
8.169444444444444,0.57
8.172222222222222,0.565
8.175,0.55
8.177777777777777,0.52
8.180555555555555,0.485
8.183333333333334,0.45
8.186111111111112,0.485
8.188888888888888,0.585
8.191666666666666,0.74
8.194444444444445,0.93
8.197222222222223,1.145
8.2,1.4
8.202777777777778,1.64
8.205555555555556,1.845
8.208333333333334,2.045
8.21111111111111,2.09
8.213888888888889,1.935
8.216666666666667,1.55
8.219444444444445,1.14
8.222222222222221,0.79
8.225,0.595
8.227777777777778,0.545
8.230555555555556,0.55
8.233333333333333,0.57
8.23611111111111,0.575
8.238888888888889,0.585
8.241666666666667,0.59
8.244444444444444,0.585
8.247222222222222,0.555
8.25,0.53
8.252777777777778,0.525
8.255555555555556,0.53
8.258333333333333,0.54
8.261111111111111,0.525
8.26388888888889,0.52
8.266666666666667,0.52
8.269444444444444,0.53
8.272222222222222,0.55
8.275,0.55
8.277777777777779,0.555
8.280555555555555,0.555
8.283333333333333,0.535
8.286111111111111,0.505
8.28888888888889,0.515
8.291666666666666,0.515
8.294444444444444,0.535
8.297222222222222,0.545
8.3,0.535
8.302777777777777,0.535
8.305555555555555,0.535
8.308333333333334,0.555
8.311111111111112,0.56
8.313888888888888,0.545
8.316666666666666,0.535
8.319444444444445,0.53
8.322222222222223,0.54
8.325,0.545
8.327777777777778,0.55
8.330555555555556,0.54
8.333333333333334,0.55
8.33611111111111,0.565
8.338888888888889,0.57
8.341666666666667,0.595
8.344444444444445,0.615
8.347222222222221,0.625
8.35,0.615
8.352777777777778,0.61
8.355555555555556,0.63
8.358333333333333,0.635
8.36111111111111,0.62
8.363888888888889,0.62
8.366666666666667,0.62
8.369444444444444,0.635
8.372222222222222,0.65
8.375,0.675
8.377777777777778,0.7
8.380555555555556,0.695
8.383333333333333,0.675
8.386111111111111,0.67
8.38888888888889,0.685
8.391666666666667,0.71
8.394444444444444,0.72
8.397222222222222,0.7
8.4,0.68
8.402777777777779,0.67
8.405555555555555,0.68
8.408333333333333,0.705
8.411111111111111,0.715
8.41388888888889,0.72
8.416666666666666,0.705
8.419444444444444,0.705
8.422222222222222,0.72
8.425,0.735
8.427777777777777,0.77
8.430555555555555,0.75
8.433333333333334,0.745
8.436111111111112,0.75
8.438888888888888,0.755
8.441666666666666,0.755
8.444444444444445,0.76
8.447222222222223,0.745
8.45,0.72
8.452777777777778,0.7
8.455555555555556,0.705
8.458333333333334,0.69
8.46111111111111,0.69
8.463888888888889,0.665
8.466666666666667,0.63
8.469444444444445,0.62
8.472222222222221,0.59
8.475,0.595
8.477777777777778,0.575
8.480555555555556,0.535
8.483333333333333,0.52
8.48611111111111,0.495
8.488888888888889,0.49
8.491666666666667,0.49
8.494444444444444,0.47
8.497222222222222,0.45
8.5,0.445
8.502777777777778,0.42
8.505555555555556,0.425
8.508333333333333,0.44
8.511111111111111,0.45
8.51388888888889,0.45
8.516666666666667,0.425
8.519444444444444,0.42
8.522222222222222,0.445
8.525,0.48
8.527777777777779,0.495
8.530555555555555,0.485
8.533333333333333,0.475
8.536111111111111,0.47
8.53888888888889,0.485
8.541666666666666,0.515
8.544444444444444,0.535
8.547222222222222,0.54
8.55,0.53
8.552777777777777,0.52
8.555555555555555,0.515
8.558333333333334,0.53
8.561111111111112,0.535
8.563888888888888,0.525
8.566666666666666,0.5
8.569444444444445,0.485
8.572222222222223,0.465
8.575,0.465
8.577777777777778,0.45
8.580555555555556,0.44
8.583333333333334,0.395
8.58611111111111,0.37
8.588888888888889,0.35
8.591666666666667,0.35
8.594444444444445,0.36
8.597222222222221,0.345
8.6,0.32
8.602777777777778,0.305
8.605555555555556,0.3
8.608333333333333,0.31
8.61111111111111,0.3
8.613888888888889,0.295
8.616666666666667,0.28
8.619444444444444,0.27
8.622222222222222,0.285
8.625,0.3
8.627777777777778,0.3
8.630555555555556,0.29
8.633333333333333,0.28
8.636111111111111,0.265
8.63888888888889,0.275
8.641666666666667,0.28
8.644444444444444,0.265
8.647222222222222,0.25
8.65,0.195
8.652777777777779,0.16
8.655555555555555,0.195
8.658333333333333,0.255
8.661111111111111,0.375
8.66388888888889,0.525
8.666666666666666,0.69
8.669444444444444,0.925
8.672222222222222,1.2
8.675,1.49
8.677777777777777,1.7
8.680555555555555,1.745
8.683333333333334,1.555
8.686111111111112,1.215
8.688888888888888,0.93
8.691666666666666,0.655
8.694444444444445,0.415
8.697222222222223,0.3
8.7,0.265
8.702777777777778,0.27
8.705555555555556,0.275
8.708333333333334,0.305
8.71111111111111,0.32
8.713888888888889,0.305
8.716666666666667,0.27
8.719444444444445,0.235
8.722222222222221,0.225
8.725,0.235
8.727777777777778,0.24
8.730555555555556,0.24
8.733333333333333,0.245
8.73611111111111,0.23
8.738888888888889,0.23
8.741666666666667,0.235
8.744444444444444,0.215
8.747222222222222,0.215
8.75,0.185
8.752777777777778,0.17
8.755555555555556,0.165
8.758333333333333,0.18
8.761111111111111,0.2
8.76388888888889,0.185
8.766666666666667,0.165
8.769444444444444,0.18
8.772222222222222,0.185
8.775,0.22
8.777777777777779,0.225
8.780555555555555,0.23
8.783333333333333,0.2
8.786111111111111,0.18
8.78888888888889,0.19
8.791666666666666,0.195
8.794444444444444,0.2
8.797222222222222,0.21
8.8,0.2
8.802777777777777,0.22
8.805555555555555,0.225
8.808333333333334,0.24
8.811111111111112,0.235
8.813888888888888,0.225
8.816666666666666,0.225
8.819444444444445,0.21
8.822222222222223,0.22
8.825,0.235
8.827777777777778,0.26
8.830555555555556,0.265
8.833333333333334,0.26
8.83611111111111,0.235
8.838888888888889,0.255
8.841666666666667,0.275
8.844444444444445,0.29
8.847222222222221,0.31
8.85,0.335
8.852777777777778,0.33
8.855555555555556,0.34
8.858333333333333,0.335
8.86111111111111,0.36
8.863888888888889,0.35
8.866666666666667,0.35
8.869444444444444,0.35
8.872222222222222,0.36
8.875,0.37
8.877777777777778,0.39
8.880555555555556,0.4
8.883333333333333,0.405
8.886111111111111,0.41
8.88888888888889,0.425
8.891666666666667,0.445
8.894444444444444,0.445
8.897222222222222,0.405
8.9,0.4
8.902777777777779,0.43
8.905555555555555,0.44
8.908333333333333,0.43
8.911111111111111,0.435
8.91388888888889,0.455
8.916666666666666,0.465
8.919444444444444,0.455
8.922222222222222,0.44
8.925,0.435
8.927777777777777,0.43
8.930555555555555,0.405
8.933333333333334,0.375
8.936111111111112,0.345
8.938888888888888,0.32
8.941666666666666,0.33
8.944444444444445,0.335
8.947222222222223,0.325
8.95,0.29
8.952777777777778,0.265
8.955555555555556,0.22
8.958333333333334,0.2
8.96111111111111,0.175
8.963888888888889,0.115
8.966666666666667,0.005
8.969444444444445,-0.07
8.972222222222221,-0.01
8.975,0.11
8.977777777777778,0.18
8.980555555555556,0.23
8.983333333333333,0.24
8.98611111111111,0.245
8.988888888888889,0.245
8.991666666666667,0.245
8.994444444444444,0.235
8.997222222222222,0.23
9.0,0.21
9.002777777777778,0.21
9.005555555555556,0.235
9.008333333333333,0.26
9.011111111111111,0.265
9.01388888888889,0.255
9.016666666666667,0.25
9.019444444444444,0.26
9.022222222222222,0.3
9.025,0.31
9.027777777777779,0.295
9.030555555555555,0.28
9.033333333333333,0.255
9.036111111111111,0.255
9.03888888888889,0.25
9.041666666666666,0.26
9.044444444444444,0.245
9.047222222222222,0.23
9.05,0.2
9.052777777777777,0.19
9.055555555555555,0.185
9.058333333333334,0.18
9.061111111111112,0.15
9.063888888888888,0.1
9.066666666666666,0.085
9.069444444444445,0.055
9.072222222222223,0.06
9.075,0.07
9.077777777777778,0.06
9.080555555555556,0.04
9.083333333333334,0.02
9.08611111111111,0.0
9.088888888888889,0.0
9.091666666666667,0.03
9.094444444444445,0.03
9.097222222222221,0.02
9.1,0.005
9.102777777777778,0.0
9.105555555555556,0.005
9.108333333333333,0.005
9.11111111111111,-0.005
9.113888888888889,-0.065
9.116666666666667,-0.15
9.119444444444444,-0.17
9.122222222222222,-0.145
9.125,-0.07
9.127777777777778,0.06
9.130555555555556,0.195
9.133333333333333,0.365
9.136111111111111,0.62
9.13888888888889,0.895
9.141666666666667,1.19
9.144444444444444,1.37
9.147222222222222,1.33
9.15,1.065
9.152777777777779,0.745
9.155555555555555,0.455
9.158333333333333,0.2
9.161111111111111,0.035
9.16388888888889,-0.035
9.166666666666666,-0.03
9.169444444444444,-0.055
9.172222222222222,-0.045
9.175,-0.015
9.177777777777777,-0.01
9.180555555555555,-0.005
9.183333333333334,-0.05
9.186111111111112,-0.07
9.188888888888888,-0.075
9.191666666666666,-0.06
9.194444444444445,-0.065
9.197222222222223,-0.085
9.2,-0.125
9.202777777777778,-0.13
9.205555555555556,-0.11
9.208333333333334,-0.085
9.21111111111111,-0.08
9.213888888888889,-0.07
9.216666666666667,-0.1
9.219444444444445,-0.09
9.222222222222221,-0.09
9.225,-0.065
9.227777777777778,-0.08
9.230555555555556,-0.075
9.233333333333333,-0.115
9.23611111111111,-0.115
9.238888888888889,-0.11
9.241666666666667,-0.095
9.244444444444444,-0.085
9.247222222222222,-0.085
9.25,-0.09
9.252777777777778,-0.095
9.255555555555556,-0.09
9.258333333333333,-0.075
9.261111111111111,-0.055
9.26388888888889,-0.06
9.266666666666667,-0.065
9.269444444444444,-0.08
9.272222222222222,-0.07
9.275,-0.05
9.277777777777779,-0.035
9.280555555555555,-0.04
9.283333333333333,-0.045
9.286111111111111,-0.035
9.28888888888889,-0.015
9.291666666666666,-0.005
9.294444444444444,0.01
9.297222222222222,0.015
9.3,0.0
9.302777777777777,-0.005
9.305555555555555,0.005
9.308333333333334,0.005
9.311111111111112,0.015
9.313888888888888,0.025
9.316666666666666,0.015
9.319444444444445,0.0
9.322222222222223,0.02
9.325,0.055
9.327777777777778,0.045
9.330555555555556,0.045
9.333333333333334,0.03
9.33611111111111,0.035
9.338888888888889,0.05
9.341666666666667,0.095
9.344444444444445,0.105
9.347222222222221,0.105
9.35,0.105
9.352777777777778,0.105
9.355555555555556,0.11
9.358333333333333,0.125
9.36111111111111,0.16
9.363888888888889,0.16
9.366666666666667,0.13
9.369444444444444,0.13
9.372222222222222,0.135
9.375,0.155
9.377777777777778,0.155
9.380555555555556,0.165
9.383333333333333,0.16
9.386111111111111,0.16
9.38888888888889,0.145
9.391666666666667,0.135
9.394444444444444,0.135
9.397222222222222,0.105
9.4,0.06
9.402777777777779,0.02
9.405555555555555,0.0
9.408333333333333,0.015
9.411111111111111,0.03
9.41388888888889,0.015
9.416666666666666,-0.015
9.419444444444444,-0.03
9.422222222222222,-0.025
9.425,-0.02
9.427777777777777,-0.015
9.430555555555555,-0.015
9.433333333333334,-0.04
9.436111111111112,-0.04
9.438888888888888,-0.045
9.441666666666666,-0.025
9.444444444444445,-0.02
9.447222222222223,-0.015
9.45,-0.025
9.452777777777778,-0.005
9.455555555555556,0.02
9.458333333333334,0.035
9.46111111111111,0.05
9.463888888888889,0.04
9.466666666666667,0.035
9.469444444444445,0.015
9.472222222222221,0.05
9.475,0.085
9.477777777777778,0.105
9.480555555555556,0.095
9.483333333333333,0.05
9.48611111111111,0.06
9.488888888888889,0.065
9.491666666666667,0.065
9.494444444444444,0.065
9.497222222222222,0.055
9.5,0.045
9.502777777777778,0.015
9.505555555555556,-0.01
9.508333333333333,-0.035
9.511111111111111,-0.04
9.51388888888889,-0.055
9.516666666666667,-0.08
9.519444444444444,-0.105
9.522222222222222,-0.11
9.525,-0.1
9.527777777777779,-0.12
9.530555555555555,-0.15
9.533333333333333,-0.195
9.536111111111111,-0.215
9.53888888888889,-0.195
9.541666666666666,-0.185
9.544444444444444,-0.175
9.547222222222222,-0.17
9.55,-0.175
9.552777777777777,-0.175
9.555555555555555,-0.18
9.558333333333334,-0.165
9.561111111111112,-0.18
9.563888888888888,-0.2
9.566666666666666,-0.275
9.569444444444445,-0.335
9.572222222222223,-0.355
9.575,-0.335
9.577777777777778,-0.3
9.580555555555556,-0.245
9.583333333333334,-0.12
9.58611111111111,0.075
9.588888888888889,0.34
9.591666666666667,0.655
9.594444444444445,0.935
9.597222222222221,1.13
9.6,1.2
9.602777777777778,1.04
9.605555555555556,0.755
9.608333333333333,0.445
9.61111111111111,0.155
9.613888888888889,-0.07
9.616666666666667,-0.175
9.619444444444444,-0.19
9.622222222222222,-0.195
9.625,-0.18
9.627777777777778,-0.17
9.630555555555556,-0.165
9.633333333333333,-0.16
9.636111111111111,-0.175
9.63888888888889,-0.17
9.641666666666667,-0.2
9.644444444444444,-0.205
9.647222222222222,-0.245
9.65,-0.28
9.652777777777779,-0.325
9.655555555555555,-0.335
9.658333333333333,-0.31
9.661111111111111,-0.29
9.66388888888889,-0.28
9.666666666666666,-0.275
9.669444444444444,-0.305
9.672222222222222,-0.315
9.675,-0.3
9.677777777777777,-0.275
9.680555555555555,-0.24
9.683333333333334,-0.26
9.686111111111112,-0.295
9.688888888888888,-0.3
9.691666666666666,-0.26
9.694444444444445,-0.23
9.697222222222223,-0.235
9.7,-0.275
9.702777777777778,-0.31
9.705555555555556,-0.355
9.708333333333334,-0.365
9.71111111111111,-0.355
9.713888888888889,-0.34
9.716666666666667,-0.335
9.719444444444445,-0.33
9.722222222222221,-0.315
9.725,-0.305
9.727777777777778,-0.32
9.730555555555556,-0.35
9.733333333333333,-0.34
9.73611111111111,-0.335
9.738888888888889,-0.35
9.741666666666667,-0.35
9.744444444444444,-0.33
9.747222222222222,-0.28
9.75,-0.25
9.752777777777778,-0.26
9.755555555555556,-0.27
9.758333333333333,-0.25
9.761111111111111,-0.24
9.76388888888889,-0.25
9.766666666666667,-0.26
9.769444444444444,-0.26
9.772222222222222,-0.24
9.775,-0.225
9.777777777777779,-0.235
9.780555555555555,-0.26
9.783333333333333,-0.255
9.786111111111111,-0.225
9.78888888888889,-0.19
9.791666666666666,-0.15
9.794444444444444,-0.12
9.797222222222222,-0.1
9.8,-0.105
9.802777777777777,-0.11
9.805555555555555,-0.125
9.808333333333334,-0.11
9.811111111111112,-0.105
9.813888888888888,-0.115
9.816666666666666,-0.14
9.819444444444445,-0.155
9.822222222222223,-0.145
9.825,-0.125
9.827777777777778,-0.12
9.830555555555556,-0.13
9.833333333333334,-0.14
9.83611111111111,-0.155
9.838888888888889,-0.165
9.841666666666667,-0.16
9.844444444444445,-0.16
9.847222222222221,-0.155
9.85,-0.17
9.852777777777778,-0.195
9.855555555555556,-0.205
9.858333333333333,-0.21
9.86111111111111,-0.24
9.863888888888889,-0.26
9.866666666666667,-0.265
9.869444444444444,-0.28
9.872222222222222,-0.295
9.875,-0.32
9.877777777777778,-0.31
9.880555555555556,-0.325
9.883333333333333,-0.375
9.886111111111111,-0.39
9.88888888888889,-0.415
9.891666666666667,-0.4
9.894444444444444,-0.38
9.897222222222222,-0.4
9.9,-0.42
9.902777777777779,-0.42
9.905555555555555,-0.395
9.908333333333333,-0.355
9.911111111111111,-0.355
9.91388888888889,-0.365
9.916666666666666,-0.365
9.919444444444444,-0.38
9.922222222222222,-0.375
9.925,-0.345
9.927777777777777,-0.315
9.930555555555555,-0.285
9.933333333333334,-0.285
9.936111111111112,-0.315
9.938888888888888,-0.315
9.941666666666666,-0.285
9.944444444444445,-0.285
9.947222222222223,-0.33
9.95,-0.4
9.952777777777778,-0.44
9.955555555555556,-0.43
9.958333333333334,-0.415
9.96111111111111,-0.435
9.963888888888889,-0.485
9.966666666666667,-0.53
9.969444444444445,-0.54
9.972222222222221,-0.565
9.975,-0.555
9.977777777777778,-0.545
9.980555555555556,-0.575
9.983333333333333,-0.605
9.98611111111111,-0.61
9.988888888888889,-0.57
9.991666666666667,-0.57
9.994444444444444,-0.59
9.997222222222222,-0.605
10.0,-0.61
10.002777777777778,-0.62
10.005555555555556,-0.64
10.008333333333333,-0.71
10.011111111111111,-0.77
10.01388888888889,-0.82
10.016666666666667,-0.805
10.019444444444444,-0.69
10.022222222222222,-0.49
10.025,-0.25
10.027777777777779,-0.01
10.030555555555555,0.24
10.033333333333333,0.49
10.036111111111111,0.715
10.03888888888889,0.81
10.041666666666666,0.685
10.044444444444444,0.36
10.047222222222222,0.005
10.05,-0.305
10.052777777777777,-0.525
10.055555555555555,-0.595
10.058333333333334,-0.585
10.061111111111112,-0.58
10.063888888888888,-0.6
10.066666666666666,-0.64
10.069444444444445,-0.655
10.072222222222223,-0.655
10.075,-0.635
10.077777777777778,-0.625
10.080555555555556,-0.63
10.083333333333334,-0.67
10.08611111111111,-0.695
10.088888888888889,-0.675
10.091666666666667,-0.68
10.094444444444445,-0.685
10.097222222222221,-0.695
10.1,-0.7
10.102777777777778,-0.72
10.105555555555556,-0.725
10.108333333333333,-0.725
10.11111111111111,-0.71
10.113888888888889,-0.685
10.116666666666667,-0.7
10.119444444444444,-0.725
10.122222222222222,-0.735
10.125,-0.71
10.127777777777778,-0.685
10.130555555555556,-0.675
10.133333333333333,-0.69
10.136111111111111,-0.695
10.13888888888889,-0.69
10.141666666666667,-0.665
10.144444444444444,-0.65
10.147222222222222,-0.685
10.15,-0.705
10.152777777777779,-0.7
10.155555555555555,-0.65
10.158333333333333,-0.62
10.161111111111111,-0.62
10.16388888888889,-0.655
10.166666666666666,-0.675
10.169444444444444,-0.665
10.172222222222222,-0.64
10.175,-0.6
10.177777777777777,-0.565
10.180555555555555,-0.57
10.183333333333334,-0.585
10.186111111111112,-0.58
10.188888888888888,-0.575
10.191666666666666,-0.545
10.194444444444445,-0.535
10.197222222222223,-0.545
10.2,-0.555
10.202777777777778,-0.555
10.205555555555556,-0.55
10.208333333333334,-0.52
10.21111111111111,-0.48
10.213888888888889,-0.47
10.216666666666667,-0.475
10.219444444444445,-0.5
10.222222222222221,-0.49
10.225,-0.47
10.227777777777778,-0.46
10.230555555555556,-0.45
10.233333333333333,-0.45
10.23611111111111,-0.48
10.238888888888889,-0.5
10.241666666666667,-0.475
10.244444444444444,-0.43
10.247222222222222,-0.385
10.25,-0.37
10.252777777777778,-0.435
10.255555555555556,-0.44
10.258333333333333,-0.405
10.261111111111111,-0.355
10.26388888888889,-0.335
10.266666666666667,-0.365
10.269444444444444,-0.375
10.272222222222222,-0.355
10.275,-0.345
10.277777777777779,-0.345
10.280555555555555,-0.37
10.283333333333333,-0.415
10.286111111111111,-0.435
10.28888888888889,-0.435
10.291666666666666,-0.425
10.294444444444444,-0.415
10.297222222222222,-0.395
10.3,-0.45
10.302777777777777,-0.52
10.305555555555555,-0.585
10.308333333333334,-0.575
10.311111111111112,-0.55
10.313888888888888,-0.55
10.316666666666666,-0.575
10.319444444444445,-0.595
10.322222222222223,-0.58
10.325,-0.565
10.327777777777778,-0.57
10.330555555555556,-0.585
10.333333333333334,-0.61
10.33611111111111,-0.61
10.338888888888889,-0.58
10.341666666666667,-0.55
10.344444444444445,-0.53
10.347222222222221,-0.55
10.35,-0.555
10.352777777777778,-0.545
10.355555555555556,-0.52
10.358333333333333,-0.48
10.36111111111111,-0.475
10.363888888888889,-0.465
10.366666666666667,-0.48
10.369444444444444,-0.48
10.372222222222222,-0.465
10.375,-0.455
10.377777777777778,-0.47
10.380555555555556,-0.495
10.383333333333333,-0.53
10.386111111111111,-0.555
10.38888888888889,-0.55
10.391666666666667,-0.525
10.394444444444444,-0.525
10.397222222222222,-0.54
10.4,-0.595
10.402777777777779,-0.635
10.405555555555555,-0.645
10.408333333333333,-0.645
10.411111111111111,-0.64
10.41388888888889,-0.655
10.416666666666666,-0.68
10.419444444444444,-0.71
10.422222222222222,-0.685
10.425,-0.675
10.427777777777777,-0.68
10.430555555555555,-0.715
10.433333333333334,-0.755
10.436111111111112,-0.755
10.438888888888888,-0.715
10.441666666666666,-0.68
10.444444444444445,-0.685
10.447222222222223,-0.685
10.45,-0.69
10.452777777777778,-0.69
10.455555555555556,-0.735
10.458333333333334,-0.78
10.46111111111111,-0.845
10.463888888888889,-0.825
10.466666666666667,-0.79
10.469444444444445,-0.77
10.472222222222221,-0.71
10.475,-0.595
10.477777777777778,-0.37
10.480555555555556,-0.105
10.483333333333333,0.175
10.48611111111111,0.46
10.488888888888889,0.665
10.491666666666667,0.64
10.494444444444444,0.365
10.497222222222222,0.0
10.5,-0.345
10.502777777777778,-0.6
10.505555555555556,-0.76
10.508333333333333,-0.8
10.511111111111111,-0.78
10.51388888888889,-0.735
10.516666666666667,-0.72
10.519444444444444,-0.72
10.522222222222222,-0.715
10.525,-0.7
10.527777777777779,-0.705
10.530555555555555,-0.72
10.533333333333333,-0.74
10.536111111111111,-0.735
10.53888888888889,-0.75
10.541666666666666,-0.77
10.544444444444444,-0.76
10.547222222222222,-0.745
10.55,-0.73
10.552777777777777,-0.725
10.555555555555555,-0.735
10.558333333333334,-0.705
10.561111111111112,-0.705
10.563888888888888,-0.71
10.566666666666666,-0.725
10.569444444444445,-0.75
10.572222222222223,-0.75
10.575,-0.725
10.577777777777778,-0.71
10.580555555555556,-0.715
10.583333333333334,-0.745
10.58611111111111,-0.74
10.588888888888889,-0.72
10.591666666666667,-0.68
10.594444444444445,-0.66
10.597222222222221,-0.68
10.6,-0.72
10.602777777777778,-0.745
10.605555555555556,-0.72
10.608333333333333,-0.665
10.61111111111111,-0.665
10.613888888888889,-0.685
10.616666666666667,-0.695
10.619444444444444,-0.69
10.622222222222222,-0.67
10.625,-0.635
10.627777777777778,-0.635
10.630555555555556,-0.625
10.633333333333333,-0.64
10.636111111111111,-0.635
10.63888888888889,-0.62
10.641666666666667,-0.59
10.644444444444444,-0.565
10.647222222222222,-0.535
10.65,-0.54
10.652777777777779,-0.575
10.655555555555555,-0.595
10.658333333333333,-0.575
10.661111111111111,-0.55
10.66388888888889,-0.545
10.666666666666666,-0.57
10.669444444444444,-0.57
10.672222222222222,-0.55
10.675,-0.505
10.677777777777777,-0.495
10.680555555555555,-0.505
10.683333333333334,-0.505
10.686111111111112,-0.51
10.688888888888888,-0.505
10.691666666666666,-0.465
10.694444444444445,-0.425
10.697222222222223,-0.405
10.7,-0.435
10.702777777777778,-0.47
10.705555555555556,-0.475
10.708333333333334,-0.465
10.71111111111111,-0.44
10.713888888888889,-0.415
10.716666666666667,-0.395
10.719444444444445,-0.41
10.722222222222221,-0.4
10.725,-0.415
10.727777777777778,-0.39
10.730555555555556,-0.395
10.733333333333333,-0.395
10.73611111111111,-0.395
10.738888888888889,-0.395
10.741666666666667,-0.385
10.744444444444444,-0.425
10.747222222222222,-0.425
10.75,-0.44
10.752777777777778,-0.44
10.755555555555556,-0.43
10.758333333333333,-0.42
10.761111111111111,-0.455
10.76388888888889,-0.475
10.766666666666667,-0.495
10.769444444444444,-0.505
10.772222222222222,-0.525
10.775,-0.53
10.777777777777779,-0.515
10.780555555555555,-0.535
10.783333333333333,-0.585
10.786111111111111,-0.62
10.78888888888889,-0.61
10.791666666666666,-0.585
10.794444444444444,-0.585
10.797222222222222,-0.595
10.8,-0.6
10.802777777777777,-0.575
10.805555555555555,-0.555
10.808333333333334,-0.51
10.811111111111112,-0.465
10.813888888888888,-0.44
10.816666666666666,-0.46
10.819444444444445,-0.475
10.822222222222223,-0.515
10.825,-0.53
10.827777777777778,-0.535
10.830555555555556,-0.485
10.833333333333334,-0.46
10.83611111111111,-0.425
10.838888888888889,-0.435
10.841666666666667,-0.445
10.844444444444445,-0.45
10.847222222222221,-0.475
10.85,-0.485
10.852777777777778,-0.48
10.855555555555556,-0.465
10.858333333333333,-0.445
10.86111111111111,-0.45
10.863888888888889,-0.48
10.866666666666667,-0.52
10.869444444444444,-0.545
10.872222222222222,-0.54
10.875,-0.54
10.877777777777778,-0.55
10.880555555555556,-0.575
10.883333333333333,-0.615
10.886111111111111,-0.64
10.88888888888889,-0.645
10.891666666666667,-0.62
10.894444444444444,-0.59
10.897222222222222,-0.59
10.9,-0.63
10.902777777777779,-0.66
10.905555555555555,-0.635
10.908333333333333,-0.625
10.911111111111111,-0.625
10.91388888888889,-0.63
10.916666666666666,-0.645
10.919444444444444,-0.655
10.922222222222222,-0.645
10.925,-0.63
10.927777777777777,-0.615
10.930555555555555,-0.605
10.933333333333334,-0.645
10.936111111111112,-0.71
10.938888888888888,-0.75
10.941666666666666,-0.735
10.944444444444445,-0.69
10.947222222222223,-0.605
10.95,-0.5
10.952777777777778,-0.335
10.955555555555556,-0.13
10.958333333333334,0.095
10.96111111111111,0.31
10.963888888888889,0.53
10.966666666666667,0.665
10.969444444444445,0.63
10.972222222222221,0.44
10.975,0.15
10.977777777777778,-0.17
10.980555555555556,-0.46
10.983333333333333,-0.71
10.98611111111111,-0.805
10.988888888888889,-0.835
10.991666666666667,-0.805
10.994444444444444,-0.77
10.997222222222222,-0.735
11.0,-0.72
11.002777777777778,-0.74
11.005555555555556,-0.735
11.008333333333333,-0.725
11.011111111111111,-0.725
11.01388888888889,-0.745
11.016666666666667,-0.775
11.019444444444444,-0.78
11.022222222222222,-0.79
11.025,-0.795
11.027777777777779,-0.79
11.030555555555555,-0.79
11.033333333333333,-0.79
11.036111111111111,-0.8
11.03888888888889,-0.76
11.041666666666666,-0.71
11.044444444444444,-0.695
11.047222222222222,-0.695
11.05,-0.72
11.052777777777777,-0.77
11.055555555555555,-0.785
11.058333333333334,-0.75
11.061111111111112,-0.71
11.063888888888888,-0.675
11.066666666666666,-0.685
11.069444444444445,-0.69
11.072222222222223,-0.69
11.075,-0.685
11.077777777777778,-0.705
11.080555555555556,-0.7
11.083333333333334,-0.68
11.08611111111111,-0.695
11.088888888888889,-0.69
11.091666666666667,-0.67
11.094444444444445,-0.645
11.097222222222221,-0.66
11.1,-0.675
11.102777777777778,-0.67
11.105555555555556,-0.65
11.108333333333333,-0.615
11.11111111111111,-0.585
11.113888888888889,-0.565
11.116666666666667,-0.56
11.119444444444444,-0.56
11.122222222222222,-0.555
11.125,-0.545
11.127777777777778,-0.555
11.130555555555556,-0.555
11.133333333333333,-0.525
11.136111111111111,-0.525
11.13888888888889,-0.515
11.141666666666667,-0.515
11.144444444444444,-0.515
11.147222222222222,-0.52
11.15,-0.53
11.152777777777779,-0.53
11.155555555555555,-0.495
11.158333333333333,-0.47
11.161111111111111,-0.46
11.16388888888889,-0.445
11.166666666666666,-0.46
11.169444444444444,-0.475
11.172222222222222,-0.475
11.175,-0.45
11.177777777777777,-0.435
11.180555555555555,-0.425
11.183333333333334,-0.43
11.186111111111112,-0.45
11.188888888888888,-0.445
11.191666666666666,-0.435
11.194444444444445,-0.44
11.197222222222223,-0.445
11.2,-0.44
11.202777777777778,-0.42
11.205555555555556,-0.405
11.208333333333334,-0.375
11.21111111111111,-0.37
11.213888888888889,-0.375
11.216666666666667,-0.39
11.219444444444445,-0.4
11.222222222222221,-0.415
11.225,-0.425
11.227777777777778,-0.415
11.230555555555556,-0.4
11.233333333333333,-0.43
11.23611111111111,-0.42
11.238888888888889,-0.41
11.241666666666667,-0.405
11.244444444444444,-0.41
11.247222222222222,-0.455
11.25,-0.51
11.252777777777778,-0.555
11.255555555555556,-0.535
11.258333333333333,-0.52
11.261111111111111,-0.52
11.26388888888889,-0.54
11.266666666666667,-0.56
11.269444444444444,-0.575
11.272222222222222,-0.58
11.275,-0.59
11.277777777777779,-0.59
11.280555555555555,-0.585
11.283333333333333,-0.605
11.286111111111111,-0.625
11.28888888888889,-0.63
11.291666666666666,-0.615
11.294444444444444,-0.62
11.297222222222222,-0.61
11.3,-0.61
11.302777777777777,-0.605
11.305555555555555,-0.615
11.308333333333334,-0.585
11.311111111111112,-0.565
11.313888888888888,-0.575
11.316666666666666,-0.585
11.319444444444445,-0.59
11.322222222222223,-0.575
11.325,-0.535
11.327777777777778,-0.495
11.330555555555556,-0.485
11.333333333333334,-0.465
11.33611111111111,-0.5
11.338888888888889,-0.51
11.341666666666667,-0.51
11.344444444444445,-0.48
11.347222222222221,-0.49
11.35,-0.515
11.352777777777778,-0.56
11.355555555555556,-0.57
11.358333333333333,-0.555
11.36111111111111,-0.545
11.363888888888889,-0.545
11.366666666666667,-0.57
11.369444444444444,-0.61
11.372222222222222,-0.6
11.375,-0.595
11.377777777777778,-0.6
11.380555555555556,-0.625
11.383333333333333,-0.66
11.386111111111111,-0.7
11.38888888888889,-0.69
11.391666666666667,-0.675
11.394444444444444,-0.65
11.397222222222222,-0.655
11.4,-0.675
11.402777777777779,-0.725
11.405555555555555,-0.74
11.408333333333333,-0.715
11.411111111111111,-0.7
11.41388888888889,-0.7
11.416666666666666,-0.71
11.419444444444444,-0.72
11.422222222222222,-0.71
11.425,-0.705
11.427777777777777,-0.71
11.430555555555555,-0.715
11.433333333333334,-0.75
11.436111111111112,-0.79
11.438888888888888,-0.825
11.441666666666666,-0.825
11.444444444444445,-0.745
11.447222222222223,-0.655
11.45,-0.545
11.452777777777778,-0.405
11.455555555555556,-0.225
11.458333333333334,0.05
11.46111111111111,0.35
11.463888888888889,0.595
11.466666666666667,0.765
11.469444444444445,0.855
11.472222222222221,0.79
11.475,0.59
11.477777777777778,0.315
11.480555555555556,0.025
11.483333333333333,-0.295
11.48611111111111,-0.58
11.488888888888889,-0.72
11.491666666666667,-0.76
11.494444444444444,-0.73
11.497222222222222,-0.72
11.5,-0.705
11.502777777777778,-0.715
11.505555555555556,-0.7
11.508333333333333,-0.69
11.511111111111111,-0.7
11.51388888888889,-0.72
11.516666666666667,-0.73
11.519444444444444,-0.72
11.522222222222222,-0.72
11.525,-0.71
11.527777777777779,-0.71
11.530555555555555,-0.715
11.533333333333333,-0.725
11.536111111111111,-0.735
11.53888888888889,-0.74
11.541666666666666,-0.73
11.544444444444444,-0.73
11.547222222222222,-0.73
11.55,-0.72
11.552777777777777,-0.715
11.555555555555555,-0.735
11.558333333333334,-0.735
11.561111111111112,-0.72
11.563888888888888,-0.71
11.566666666666666,-0.715
11.569444444444445,-0.745
11.572222222222223,-0.74
11.575,-0.735
11.577777777777778,-0.715
11.580555555555556,-0.71
11.583333333333334,-0.725
11.58611111111111,-0.71
11.588888888888889,-0.705
11.591666666666667,-0.725
11.594444444444445,-0.735
11.597222222222221,-0.725
11.6,-0.715
11.602777777777778,-0.705
11.605555555555556,-0.695
11.608333333333333,-0.665
11.61111111111111,-0.645
11.613888888888889,-0.64
11.616666666666667,-0.66
11.619444444444444,-0.66
11.622222222222222,-0.655
11.625,-0.625
11.627777777777778,-0.625
11.630555555555556,-0.61
11.633333333333333,-0.635
11.636111111111111,-0.64
11.63888888888889,-0.64
11.641666666666667,-0.605
11.644444444444444,-0.59
11.647222222222222,-0.575
11.65,-0.575
11.652777777777779,-0.565
11.655555555555555,-0.55
11.658333333333333,-0.535
11.661111111111111,-0.525
11.66388888888889,-0.535
11.666666666666666,-0.57
11.669444444444444,-0.575
11.672222222222222,-0.575
11.675,-0.565
11.677777777777777,-0.535
11.680555555555555,-0.52
11.683333333333334,-0.525
11.686111111111112,-0.53
11.688888888888888,-0.535
11.691666666666666,-0.51
11.694444444444445,-0.505
11.697222222222223,-0.49
11.7,-0.495
11.702777777777778,-0.495
11.705555555555556,-0.485
11.708333333333334,-0.475
11.71111111111111,-0.455
11.713888888888889,-0.46
11.716666666666667,-0.47
11.719444444444445,-0.48
11.722222222222221,-0.485
11.725,-0.455
11.727777777777778,-0.445
11.730555555555556,-0.445
11.733333333333333,-0.475
11.73611111111111,-0.49
11.738888888888889,-0.49
11.741666666666667,-0.46
11.744444444444444,-0.445
11.747222222222222,-0.46
11.75,-0.485
11.752777777777778,-0.495
11.755555555555556,-0.51
11.758333333333333,-0.5
11.761111111111111,-0.52
11.76388888888889,-0.545
11.766666666666667,-0.59
11.769444444444444,-0.62
11.772222222222222,-0.62
11.775,-0.59
11.777777777777779,-0.59
11.780555555555555,-0.605
11.783333333333333,-0.63
11.786111111111111,-0.645
11.78888888888889,-0.63
11.791666666666666,-0.615
11.794444444444444,-0.615
11.797222222222222,-0.61
11.8,-0.63
11.802777777777777,-0.63
11.805555555555555,-0.62
11.808333333333334,-0.615
11.811111111111112,-0.595
11.813888888888888,-0.61
11.816666666666666,-0.605
11.819444444444445,-0.605
11.822222222222223,-0.595
11.825,-0.57
11.827777777777778,-0.57
11.830555555555556,-0.56
11.833333333333334,-0.555
11.83611111111111,-0.525
11.838888888888889,-0.495
11.841666666666667,-0.485
11.844444444444445,-0.495
11.847222222222221,-0.515
11.85,-0.53
11.852777777777778,-0.555
11.855555555555556,-0.53
11.858333333333333,-0.515
11.86111111111111,-0.52
11.863888888888889,-0.54
11.866666666666667,-0.58
11.869444444444444,-0.61
11.872222222222222,-0.615
11.875,-0.6
11.877777777777778,-0.595
11.880555555555556,-0.6
11.883333333333333,-0.64
11.886111111111111,-0.655
11.88888888888889,-0.645
11.891666666666667,-0.645
11.894444444444444,-0.69
11.897222222222222,-0.74
11.9,-0.76
11.902777777777779,-0.765
11.905555555555555,-0.75
11.908333333333333,-0.745
11.911111111111111,-0.73
11.91388888888889,-0.73
11.916666666666666,-0.755
11.919444444444444,-0.78
11.922222222222222,-0.79
11.925,-0.76
11.927777777777777,-0.745
11.930555555555555,-0.74
11.933333333333334,-0.76
11.936111111111112,-0.79
11.938888888888888,-0.815
11.941666666666666,-0.85
11.944444444444445,-0.86
11.947222222222223,-0.865
11.95,-0.85
11.952777777777778,-0.775
11.955555555555556,-0.635
11.958333333333334,-0.41
11.96111111111111,-0.145
11.963888888888889,0.155
11.966666666666667,0.42
11.969444444444445,0.65
11.972222222222221,0.79
11.975,0.74
11.977777777777778,0.49
11.980555555555556,0.155
11.983333333333333,-0.205
11.98611111111111,-0.52
11.988888888888889,-0.74
11.991666666666667,-0.82
11.994444444444444,-0.795
11.997222222222222,-0.77
12.0,-0.775
12.002777777777778,-0.79
12.005555555555556,-0.785
12.008333333333333,-0.76
12.011111111111111,-0.74
12.01388888888889,-0.755
12.016666666666667,-0.78
12.019444444444444,-0.8
12.022222222222222,-0.81
12.025,-0.805
12.027777777777779,-0.8
12.030555555555555,-0.81
12.033333333333333,-0.82
12.036111111111111,-0.805
12.03888888888889,-0.785
12.041666666666666,-0.79
12.044444444444444,-0.81
12.047222222222222,-0.835
12.05,-0.84
12.052777777777777,-0.83
12.055555555555555,-0.825
12.058333333333334,-0.79
12.061111111111112,-0.79
12.063888888888888,-0.775
12.066666666666666,-0.795
12.069444444444445,-0.82
12.072222222222223,-0.81
12.075,-0.795
12.077777777777778,-0.79
12.080555555555556,-0.805
12.083333333333334,-0.805
12.08611111111111,-0.83
12.088888888888889,-0.82
12.091666666666667,-0.8
12.094444444444445,-0.785
12.097222222222221,-0.77
12.1,-0.77
12.102777777777778,-0.78
12.105555555555556,-0.765
12.108333333333333,-0.76
12.11111111111111,-0.745
12.113888888888889,-0.75
12.116666666666667,-0.745
12.119444444444444,-0.765
12.122222222222222,-0.77
12.125,-0.745
12.127777777777778,-0.725
12.130555555555556,-0.705
12.133333333333333,-0.71
12.136111111111111,-0.715
12.13888888888889,-0.705
12.141666666666667,-0.68
12.144444444444444,-0.67
12.147222222222222,-0.665
12.15,-0.665
12.152777777777779,-0.655
12.155555555555555,-0.655
12.158333333333333,-0.64
12.161111111111111,-0.65
12.16388888888889,-0.625
12.166666666666666,-0.63
12.169444444444444,-0.635
12.172222222222222,-0.61
12.175,-0.6
12.177777777777777,-0.595
12.180555555555555,-0.605
12.183333333333334,-0.62
12.186111111111112,-0.63
12.188888888888888,-0.625
12.191666666666666,-0.595
12.194444444444445,-0.56
12.197222222222223,-0.545
12.2,-0.555
12.202777777777778,-0.58
12.205555555555556,-0.58
12.208333333333334,-0.545
12.21111111111111,-0.54
12.213888888888889,-0.54
12.216666666666667,-0.545
12.219444444444445,-0.545
12.222222222222221,-0.54
12.225,-0.545
12.227777777777778,-0.53
12.230555555555556,-0.53
12.233333333333333,-0.555
12.23611111111111,-0.575
12.238888888888889,-0.585
12.241666666666667,-0.58
12.244444444444444,-0.585
12.247222222222222,-0.6
12.25,-0.64
12.252777777777778,-0.68
12.255555555555556,-0.705
12.258333333333333,-0.705
12.261111111111111,-0.695
12.26388888888889,-0.675
12.266666666666667,-0.69
12.269444444444444,-0.7
12.272222222222222,-0.72
12.275,-0.705
12.277777777777779,-0.7
12.280555555555555,-0.7
12.283333333333333,-0.715
12.286111111111111,-0.74
12.28888888888889,-0.72
12.291666666666666,-0.71
12.294444444444444,-0.695
12.297222222222222,-0.69
12.3,-0.71
12.302777777777777,-0.71
12.305555555555555,-0.695
12.308333333333334,-0.67
12.311111111111112,-0.64
12.313888888888888,-0.605
12.316666666666666,-0.625
12.319444444444445,-0.645
12.322222222222223,-0.645
12.325,-0.625
12.327777777777778,-0.62
12.330555555555556,-0.615
12.333333333333334,-0.605
12.33611111111111,-0.61
12.338888888888889,-0.605
12.341666666666667,-0.625
12.344444444444445,-0.65
12.347222222222221,-0.675
12.35,-0.69
12.352777777777778,-0.7
12.355555555555556,-0.7
12.358333333333333,-0.7
12.36111111111111,-0.71
12.363888888888889,-0.73
12.366666666666667,-0.775
12.369444444444444,-0.8
12.372222222222222,-0.835
12.375,-0.835
12.377777777777778,-0.82
12.380555555555556,-0.805
12.383333333333333,-0.81
12.386111111111111,-0.83
12.38888888888889,-0.85
12.391666666666667,-0.84
12.394444444444444,-0.83
12.397222222222222,-0.835
12.4,-0.84
12.402777777777779,-0.84
12.405555555555555,-0.835
12.408333333333333,-0.835
12.411111111111111,-0.845
12.41388888888889,-0.855
12.416666666666666,-0.905
12.419444444444444,-0.955
12.422222222222222,-0.975
12.425,-0.935
12.427777777777777,-0.825
12.430555555555555,-0.675
12.433333333333334,-0.495
12.436111111111112,-0.265
12.438888888888888,0.015
12.441666666666666,0.305
12.444444444444445,0.565
12.447222222222223,0.735
12.45,0.76
12.452777777777778,0.585
12.455555555555556,0.285
12.458333333333334,-0.02
12.46111111111111,-0.335
12.463888888888889,-0.585
12.466666666666667,-0.765
12.469444444444445,-0.84
12.472222222222221,-0.835
12.475,-0.845
12.477777777777778,-0.855
12.480555555555556,-0.865
12.483333333333333,-0.86
12.48611111111111,-0.86
12.488888888888889,-0.875
12.491666666666667,-0.875
12.494444444444444,-0.87
12.497222222222222,-0.88
12.5,-0.9
12.502777777777778,-0.92
12.505555555555556,-0.93
12.508333333333333,-0.91
12.511111111111111,-0.895
12.51388888888889,-0.915
12.516666666666667,-0.955
12.519444444444444,-0.955
12.522222222222222,-0.95
12.525,-0.935
12.527777777777779,-0.91
12.530555555555555,-0.89
12.533333333333333,-0.915
12.536111111111111,-0.925
12.53888888888889,-0.95
12.541666666666666,-0.945
12.544444444444444,-0.935
12.547222222222222,-0.92
12.55,-0.925
12.552777777777777,-0.94
12.555555555555555,-0.935
12.558333333333334,-0.905
12.561111111111112,-0.905
12.563888888888888,-0.905
12.566666666666666,-0.935
12.569444444444445,-0.95
12.572222222222223,-0.935
12.575,-0.885
12.577777777777778,-0.87
12.580555555555556,-0.865
12.583333333333334,-0.885
12.58611111111111,-0.885
12.588888888888889,-0.88
12.591666666666667,-0.86
12.594444444444445,-0.86
12.597222222222221,-0.865
12.6,-0.89
12.602777777777778,-0.885
12.605555555555556,-0.855
12.608333333333333,-0.85
12.61111111111111,-0.845
12.613888888888889,-0.835
12.616666666666667,-0.825
12.619444444444444,-0.825
12.622222222222222,-0.8
12.625,-0.78
12.627777777777778,-0.78
12.630555555555556,-0.77
12.633333333333333,-0.77
12.636111111111111,-0.785
12.63888888888889,-0.77
12.641666666666667,-0.745
12.644444444444444,-0.735
12.647222222222222,-0.73
12.65,-0.75
12.652777777777779,-0.76
12.655555555555555,-0.745
12.658333333333333,-0.705
12.661111111111111,-0.715
12.66388888888889,-0.71
12.666666666666666,-0.72
12.669444444444444,-0.725
12.672222222222222,-0.715
12.675,-0.7
12.677777777777777,-0.68
12.680555555555555,-0.67
12.683333333333334,-0.695
12.686111111111112,-0.69
12.688888888888888,-0.7
12.691666666666666,-0.705
12.694444444444445,-0.68
12.697222222222223,-0.665
12.7,-0.66
12.702777777777778,-0.67
12.705555555555556,-0.675
12.708333333333334,-0.685
12.71111111111111,-0.675
12.713888888888889,-0.685
12.716666666666667,-0.69
12.719444444444445,-0.7
12.722222222222221,-0.71
12.725,-0.73
12.727777777777778,-0.765
12.730555555555556,-0.775
12.733333333333333,-0.79
12.73611111111111,-0.8
12.738888888888889,-0.81
12.741666666666667,-0.81
12.744444444444444,-0.805
12.747222222222222,-0.81
12.75,-0.845
12.752777777777778,-0.86
12.755555555555556,-0.845
12.758333333333333,-0.825
12.761111111111111,-0.835
12.76388888888889,-0.83
12.766666666666667,-0.85
12.769444444444444,-0.85
12.772222222222222,-0.84
12.775,-0.8
12.777777777777779,-0.78
12.780555555555555,-0.78
12.783333333333333,-0.785
12.786111111111111,-0.8
12.78888888888889,-0.8
12.791666666666666,-0.77
12.794444444444444,-0.735
12.797222222222222,-0.715
12.8,-0.715
12.802777777777777,-0.73
12.805555555555555,-0.73
12.808333333333334,-0.725
12.811111111111112,-0.715
12.813888888888888,-0.725
12.816666666666666,-0.725
12.819444444444445,-0.74
12.822222222222223,-0.76
12.825,-0.75
12.827777777777778,-0.755
12.830555555555556,-0.77
12.833333333333334,-0.805
12.83611111111111,-0.835
12.838888888888889,-0.86
12.841666666666667,-0.845
12.844444444444445,-0.845
12.847222222222221,-0.855
12.85,-0.885
12.852777777777778,-0.885
12.855555555555556,-0.875
12.858333333333333,-0.895
12.86111111111111,-0.94
12.863888888888889,-0.96
12.866666666666667,-0.955
12.869444444444444,-0.93
12.872222222222222,-0.915
12.875,-0.9
12.877777777777778,-0.91
12.880555555555556,-0.915
12.883333333333333,-0.925
12.886111111111111,-0.925
12.88888888888889,-0.945
12.891666666666667,-0.98
12.894444444444444,-1.04
12.897222222222222,-1.04
12.9,-1.02
12.902777777777779,-0.955
12.905555555555555,-0.805
12.908333333333333,-0.6
12.911111111111111,-0.36
12.91388888888889,-0.075
12.916666666666666,0.21
12.919444444444444,0.49
12.922222222222222,0.665
12.925,0.625
12.927777777777777,0.365
12.930555555555555,-0.005
12.933333333333334,-0.395
12.936111111111112,-0.7
12.938888888888888,-0.845
12.941666666666666,-0.865
12.944444444444445,-0.88
12.947222222222223,-0.91
12.95,-0.915
12.952777777777778,-0.9
12.955555555555556,-0.915
12.958333333333334,-0.885
12.96111111111111,-0.885
12.963888888888889,-0.89
12.966666666666667,-0.92
12.969444444444445,-0.955
12.972222222222221,-0.965
12.975,-0.93
12.977777777777778,-0.905
12.980555555555556,-0.91
12.983333333333333,-0.94
12.98611111111111,-0.965
12.988888888888889,-0.96
12.991666666666667,-0.94
12.994444444444444,-0.91
12.997222222222222,-0.925
13.0,-0.94
13.002777777777778,-0.95
13.005555555555556,-0.95
13.008333333333333,-0.925
13.011111111111111,-0.91
13.01388888888889,-0.915
13.016666666666667,-0.94
13.019444444444444,-0.955
13.022222222222222,-0.93
13.025,-0.905
13.027777777777779,-0.9
13.030555555555555,-0.895
13.033333333333333,-0.895
13.036111111111111,-0.88
13.03888888888889,-0.86
13.041666666666666,-0.855
13.044444444444444,-0.87
13.047222222222222,-0.89
13.05,-0.89
13.052777777777777,-0.86
13.055555555555555,-0.865
13.058333333333334,-0.84
13.061111111111112,-0.83
13.063888888888888,-0.82
13.066666666666666,-0.82
13.069444444444445,-0.825
13.072222222222223,-0.8
13.075,-0.765
13.077777777777778,-0.755
13.080555555555556,-0.75
13.083333333333334,-0.785
13.08611111111111,-0.8
13.088888888888889,-0.77
13.091666666666667,-0.745
13.094444444444445,-0.715
13.097222222222221,-0.71
13.1,-0.73
13.102777777777778,-0.745
13.105555555555556,-0.73
13.108333333333333,-0.715
13.11111111111111,-0.69
13.113888888888889,-0.685
13.116666666666667,-0.695
13.119444444444444,-0.675
13.122222222222222,-0.67
13.125,-0.655
13.127777777777778,-0.64
13.130555555555556,-0.61
13.133333333333333,-0.615
13.136111111111111,-0.635
13.13888888888889,-0.645
13.141666666666667,-0.63
13.144444444444444,-0.62
13.147222222222222,-0.605
13.15,-0.6
13.152777777777779,-0.61
13.155555555555555,-0.605
13.158333333333333,-0.61
13.161111111111111,-0.6
13.16388888888889,-0.595
13.166666666666666,-0.61
13.169444444444444,-0.625
13.172222222222222,-0.645
13.175,-0.68
13.177777777777777,-0.695
13.180555555555555,-0.695
13.183333333333334,-0.71
13.186111111111112,-0.715
13.188888888888888,-0.71
13.191666666666666,-0.72
13.194444444444445,-0.735
13.197222222222223,-0.745
13.2,-0.74
13.202777777777778,-0.745
13.205555555555556,-0.735
13.208333333333334,-0.715
13.21111111111111,-0.705
13.213888888888889,-0.7
13.216666666666667,-0.73
13.219444444444445,-0.72
13.222222222222221,-0.725
13.225,-0.68
13.227777777777778,-0.66
13.230555555555556,-0.645
13.233333333333333,-0.64
13.23611111111111,-0.645
13.238888888888889,-0.615
13.241666666666667,-0.59
13.244444444444444,-0.59
13.247222222222222,-0.61
13.25,-0.615
13.252777777777778,-0.625
13.255555555555556,-0.605
13.258333333333333,-0.6
13.261111111111111,-0.585
13.26388888888889,-0.625
13.266666666666667,-0.665
13.269444444444444,-0.65
13.272222222222222,-0.67
13.275,-0.675
13.277777777777779,-0.68
13.280555555555555,-0.685
13.283333333333333,-0.715
13.286111111111111,-0.74
13.28888888888889,-0.76
13.291666666666666,-0.77
13.294444444444444,-0.77
13.297222222222222,-0.77
13.3,-0.785
13.302777777777777,-0.77
13.305555555555555,-0.775
13.308333333333334,-0.775
13.311111111111112,-0.765
13.313888888888888,-0.775
13.316666666666666,-0.795
13.319444444444445,-0.82
13.322222222222223,-0.81
13.325,-0.785
13.327777777777778,-0.775
13.330555555555556,-0.775
13.333333333333334,-0.805
13.33611111111111,-0.86
13.338888888888889,-0.9
13.341666666666667,-0.915
13.344444444444445,-0.85
13.347222222222221,-0.745
13.35,-0.615
13.352777777777778,-0.405
13.355555555555556,-0.155
13.358333333333333,0.105
13.36111111111111,0.42
13.363888888888889,0.67
13.366666666666667,0.815
13.369444444444444,0.76
13.372222222222222,0.505
13.375,0.17
13.377777777777778,-0.14
13.380555555555556,-0.42
13.383333333333333,-0.635
13.386111111111111,-0.71
13.38888888888889,-0.74
13.391666666666667,-0.775
13.394444444444444,-0.775
13.397222222222222,-0.765
13.4,-0.755
13.402777777777779,-0.74
13.405555555555555,-0.735
13.408333333333333,-0.735
13.411111111111111,-0.735
13.41388888888889,-0.755
13.416666666666666,-0.785
13.419444444444444,-0.79
13.422222222222222,-0.815
13.425,-0.805
13.427777777777777,-0.79
13.430555555555555,-0.775
13.433333333333334,-0.78
13.436111111111112,-0.805
13.438888888888888,-0.81
13.441666666666666,-0.775
13.444444444444445,-0.775
13.447222222222223,-0.79
13.45,-0.8
13.452777777777778,-0.795
13.455555555555556,-0.765
13.458333333333334,-0.755
13.46111111111111,-0.755
13.463888888888889,-0.765
13.466666666666667,-0.775
13.469444444444445,-0.775
13.472222222222221,-0.75
13.475,-0.73
13.477777777777778,-0.745
13.480555555555556,-0.755
13.483333333333333,-0.75
13.48611111111111,-0.745
13.488888888888889,-0.74
13.491666666666667,-0.73
13.494444444444444,-0.7
13.497222222222222,-0.69
13.5,-0.69
13.502777777777778,-0.7
13.505555555555556,-0.695
13.508333333333333,-0.665
13.511111111111111,-0.66
13.51388888888889,-0.675
13.516666666666667,-0.71
13.519444444444444,-0.71
13.522222222222222,-0.69
13.525,-0.66
13.527777777777779,-0.64
13.530555555555555,-0.62
13.533333333333333,-0.61
13.536111111111111,-0.615
13.53888888888889,-0.61
13.541666666666666,-0.6
13.544444444444444,-0.575
13.547222222222222,-0.56
13.55,-0.56
13.552777777777777,-0.59
13.555555555555555,-0.59
13.558333333333334,-0.58
13.561111111111112,-0.58
13.563888888888888,-0.57
13.566666666666666,-0.585
13.569444444444445,-0.565
13.572222222222223,-0.535
13.575,-0.525
13.577777777777778,-0.5
13.580555555555556,-0.51
13.583333333333334,-0.53
13.58611111111111,-0.525
13.588888888888889,-0.525
13.591666666666667,-0.485
13.594444444444445,-0.485
13.597222222222221,-0.5
13.6,-0.535
13.602777777777778,-0.535
13.605555555555556,-0.52
13.608333333333333,-0.5
13.61111111111111,-0.5
13.613888888888889,-0.475
13.616666666666667,-0.48
13.619444444444444,-0.495
13.622222222222222,-0.5
13.625,-0.49
13.627777777777778,-0.475
13.630555555555556,-0.475
13.633333333333333,-0.5
13.636111111111111,-0.53
13.63888888888889,-0.525
13.641666666666667,-0.49
13.644444444444444,-0.495
13.647222222222222,-0.5
13.65,-0.555
13.652777777777779,-0.57
13.655555555555555,-0.565
13.658333333333333,-0.55
13.661111111111111,-0.545
13.66388888888889,-0.565
13.666666666666666,-0.59
13.669444444444444,-0.595
13.672222222222222,-0.585
13.675,-0.57
13.677777777777777,-0.59
13.680555555555555,-0.56
13.683333333333334,-0.565
13.686111111111112,-0.565
13.688888888888888,-0.56
13.691666666666666,-0.545
13.694444444444445,-0.545
13.697222222222223,-0.54
13.7,-0.56
13.702777777777778,-0.56
13.705555555555556,-0.55
13.708333333333334,-0.525
13.71111111111111,-0.53
13.713888888888889,-0.515
13.716666666666667,-0.495
13.719444444444445,-0.49
13.722222222222221,-0.475
13.725,-0.49
13.727777777777778,-0.48
13.730555555555556,-0.47
13.733333333333333,-0.47
13.73611111111111,-0.47
13.738888888888889,-0.465
13.741666666666667,-0.49
13.744444444444444,-0.47
13.747222222222222,-0.49
13.75,-0.52
13.752777777777778,-0.545
13.755555555555556,-0.56
13.758333333333333,-0.56
13.761111111111111,-0.57
13.76388888888889,-0.61
13.766666666666667,-0.62
13.769444444444444,-0.66
13.772222222222222,-0.645
13.775,-0.62
13.777777777777779,-0.605
13.780555555555555,-0.63
13.783333333333333,-0.655
13.786111111111111,-0.675
13.78888888888889,-0.675
13.791666666666666,-0.66
13.794444444444444,-0.64
13.797222222222222,-0.635
13.8,-0.63
13.802777777777777,-0.645
13.805555555555555,-0.655
13.808333333333334,-0.665
13.811111111111112,-0.67
13.813888888888888,-0.685
13.816666666666666,-0.705
13.819444444444445,-0.725
13.822222222222223,-0.69
13.825,-0.59
13.827777777777778,-0.47
13.830555555555556,-0.3
13.833333333333334,-0.075
13.83611111111111,0.225
13.838888888888889,0.565
13.841666666666667,0.84
13.844444444444445,0.995
13.847222222222221,0.955
13.85,0.7
13.852777777777778,0.35
13.855555555555556,0.03
13.858333333333333,-0.255
13.86111111111111,-0.43
13.863888888888889,-0.49
13.866666666666667,-0.52
13.869444444444444,-0.58
13.872222222222222,-0.57
13.875,-0.53
13.877777777777778,-0.5
13.880555555555556,-0.51
13.883333333333333,-0.54
13.886111111111111,-0.565
13.88888888888889,-0.57
13.891666666666667,-0.545
13.894444444444444,-0.535
13.897222222222222,-0.525
13.9,-0.545
13.902777777777779,-0.58
13.905555555555555,-0.575
13.908333333333333,-0.565
13.911111111111111,-0.555
13.91388888888889,-0.55
13.916666666666666,-0.57
13.919444444444444,-0.585
13.922222222222222,-0.57
13.925,-0.56
13.927777777777777,-0.555
13.930555555555555,-0.545
13.933333333333334,-0.565
13.936111111111112,-0.585
13.938888888888888,-0.55
13.941666666666666,-0.535
13.944444444444445,-0.52
13.947222222222223,-0.535
13.95,-0.55
13.952777777777778,-0.555
13.955555555555556,-0.54
13.958333333333334,-0.51
13.96111111111111,-0.5
13.963888888888889,-0.5
13.966666666666667,-0.5
13.969444444444445,-0.525
13.972222222222221,-0.525
13.975,-0.5
13.977777777777778,-0.48
13.980555555555556,-0.475
13.983333333333333,-0.51
13.98611111111111,-0.505
13.988888888888889,-0.495
13.991666666666667,-0.475
13.994444444444444,-0.46
13.997222222222222,-0.465
14.0,-0.475
14.002777777777778,-0.475
14.005555555555556,-0.47
14.008333333333333,-0.48
14.011111111111111,-0.505
14.01388888888889,-0.5
14.016666666666667,-0.49
14.019444444444444,-0.485
14.022222222222222,-0.48
14.025,-0.46
14.027777777777779,-0.445
14.030555555555555,-0.475
14.033333333333333,-0.465
14.036111111111111,-0.46
14.03888888888889,-0.435
14.041666666666666,-0.43
14.044444444444444,-0.425
14.047222222222222,-0.425
14.05,-0.44
14.052777777777777,-0.455
14.055555555555555,-0.47
14.058333333333334,-0.455
14.061111111111112,-0.435
14.063888888888888,-0.445
14.066666666666666,-0.465
14.069444444444445,-0.475
14.072222222222223,-0.465
14.075,-0.435
14.077777777777778,-0.425
14.080555555555556,-0.43
14.083333333333334,-0.445
14.08611111111111,-0.45
14.088888888888889,-0.46
14.091666666666667,-0.47
14.094444444444445,-0.45
14.097222222222221,-0.44
14.1,-0.45
14.102777777777778,-0.47
14.105555555555556,-0.485
14.108333333333333,-0.455
14.11111111111111,-0.435
14.113888888888889,-0.415
14.116666666666667,-0.43
14.119444444444444,-0.455
14.122222222222222,-0.49
14.125,-0.48
14.127777777777778,-0.46
14.130555555555556,-0.44
14.133333333333333,-0.45
14.136111111111111,-0.475
14.13888888888889,-0.485
14.141666666666667,-0.47
14.144444444444444,-0.465
14.147222222222222,-0.46
14.15,-0.46
14.152777777777779,-0.46
14.155555555555555,-0.455
14.158333333333333,-0.42
14.161111111111111,-0.39
14.16388888888889,-0.395
14.166666666666666,-0.415
14.169444444444444,-0.405
14.172222222222222,-0.375
14.175,-0.34
14.177777777777777,-0.335
14.180555555555555,-0.34
14.183333333333334,-0.335
14.186111111111112,-0.325
14.188888888888888,-0.295
14.191666666666666,-0.275
14.194444444444445,-0.245
14.197222222222223,-0.245
14.2,-0.265
14.202777777777778,-0.275
14.205555555555556,-0.28
14.208333333333334,-0.27
14.21111111111111,-0.255
14.213888888888889,-0.265
14.216666666666667,-0.285
14.219444444444445,-0.325
14.222222222222221,-0.355
14.225,-0.375
14.227777777777778,-0.37
14.230555555555556,-0.395
14.233333333333333,-0.415
14.23611111111111,-0.445
14.238888888888889,-0.445
14.241666666666667,-0.435
14.244444444444444,-0.445
14.247222222222222,-0.44
14.25,-0.47
14.252777777777778,-0.49
14.255555555555556,-0.5
14.258333333333333,-0.49
14.261111111111111,-0.49
14.26388888888889,-0.495
14.266666666666667,-0.52
14.269444444444444,-0.53
14.272222222222222,-0.515
14.275,-0.495
14.277777777777779,-0.49
14.280555555555555,-0.505
14.283333333333333,-0.505
14.286111111111111,-0.53
14.28888888888889,-0.535
14.291666666666666,-0.555
14.294444444444444,-0.59
14.297222222222222,-0.595
14.3,-0.585
14.302777777777777,-0.54
14.305555555555555,-0.425
